energy,intensity
629.00933975839894,-0.0029317162916479038
629.03832587371608,-0.0028511042514574496
629.06731198903333,-0.0027715363543281586
629.09629810435047,-0.0026930066510856832
629.12528421966761,-0.0026155091925547402
629.15427033498486,-0.0025390380295600579
629.183256450302,-0.0024635872129272684
629.21224256561914,-0.0023891507934810964
629.24122868093639,-0.002315722822046287
629.27021479625353,-0.0022432973494484437
629.29920091157078,-0.0021718684265120288
629.32818702688792,-0.002101430104062631
629.35717314220506,-0.0020319764329249975
629.38615925752231,-0.0019635014639238905
629.41514537283945,-0.0018959992478848771
629.44413148815659,-0.0018294638356327144
629.47311760347384,-0.0017638892779921786
629.50210371879098,-0.0016992696257888112
629.53108983410812,-0.0016355989298473834
629.56007594942537,-0.0015728712409926791
629.58906206474251,-0.0015110806100502199
629.61804818005965,-0.0014502210878447875
629.6470342953769,-0.0013902867252011777
629.67602041069404,-0.0013312715729448903
629.70500652601118,-0.001273169681900716
629.73399264132843,-0.0012159751028934626
629.76297875664557,-0.0011596818867486073
629.7919648719627,-0.0011042840842909534
629.82095098727996,-0.0010497757463453184
629.8499371025971,-0.00099615092373715893
629.87892321791435,-0.00094340366729108263
629.90790933323149,-0.00089152802783253309
629.93689544854863,-0.0008405180561863305
629.96588156386588,-0.00079036780317730943
629.99486767918302,-0.00074107131963089211
630.02385379450016,-0.00069262265637190957
630.05283990981741,-0.00064501586422520472
630.08182602513455,-0.00059824499401618246
630.11081214045169,-0.00055230409656968095
630.13979825576894,-0.00050718722271055592
630.16878437108608,-0.00046288842326418954
630.19777048640321,-0.00041940174905543272
630.22675660172047,-0.0003767212509091486
630.25574271703761,-0.00033484097965070072
630.28472883235474,-0.00029375498610495005
630.313714947672,-0.0002534573210967693
630.34270106298914,-0.00021394203545150263
630.37168717830639,-0.00017520317999387023
630.40067329362353,-0.00013723480554920475
630.42965940894067,-0.00010003096294238118
630.45864552425792,-6.3585702998288226e-05
630.48763163957506,-2.7893076542240826e-05
630.5166177548922,7.0528656008768006e-06
630.54560387020945,4.1258072606168165e-05
630.57458998552659,7.4728493648335432e-05
630.60357610084372,0.0001074700779024852
630.63256221616098,0.00013948877454371305
630.66154833147812,0.00017079053274673766
630.69053444679525,0.00020138130168665777
630.71952056211251,0.00023126703053855997
630.74850667742965,0.00026045366847718009
630.77749279274678,0.00028894716467760809
630.80647890806404,0.00031675346831492251
630.83546502338118,0.00034387852856387533
630.86445113869831,0.00037032829459954892
630.89343725401557,0.00039610871559701366
630.92242336933271,0.00042122574073103804
630.95140948464996,0.00044568531917678935
630.9803955999671,0.00046949340010904754
631.00938171528423,0.00049265593270288036
631.03836783060149,0.00051517886613334553
631.06735394591863,0.00053706814957523742
631.09634006123576,0.00055832973220361771
631.12532617655302,0.0005789695631935347
631.15431229187016,0.00059899359171979808
631.18329840718729,0.00061840776695746148
631.21228452250455,0.00063721803808156866
631.24127063782169,0.00065543035426694166
631.27025675313882,0.00067305066468862718
631.29924286845608,0.00069008491852166139
631.32822898377322,0.00070653906494088227
631.35721509909035,0.00072241905312132708
631.38620121440761,0.00073773083223802722
631.41518732972474,0.00075248035146583249
631.444173445042,0.00076667355997983068
631.47315956035914,0.00078031640695487992
631.50214567567627,0.00079341484156600773
631.53113179099353,0.00080597481298823413
631.56011790631067,0.00081800227039643101
631.5891040216278,0.00082950316296562015
631.61809013694506,0.00084048343987081354
631.6470762522622,0.00085094905028689654
631.67606236757933,0.00086090594338888418
631.70504848289659,0.00087036006835178282
631.73403459821373,0.00087931737435048931
631.76302071353086,0.00088778381056001197
631.79200682884812,0.00089576532615535432
631.82099294416525,0.00090326787031142202
631.84997905948239,0.00091029739220321924
631.87896517479965,0.00091685984100574216
631.90795129011678,0.0009229611658939091
631.93693740543404,0.00092860731604273931
631.96592352075118,0.00093380424062716001
631.99490963606831,0.00093855788882216389
632.02389575138557,0.00094287420980273856
632.05288186670271,0.00094675915274382077
632.08186798201984,0.00095021866682039931
632.1108540973371,0.00095325870120745691
632.13984021265424,0.00095588520507993888
632.16882632797137,0.00095810412761283099
632.19781244328863,0.00095992141798110771
632.22679855860576,0.00096134302535972802
632.2557846739229,0.00096237489892366955
632.28477078924016,0.0009630229878479057
632.31375690455729,0.00096329324130740108
632.34274301987443,0.00096319160847713116
632.37172913519169,0.00096272403853206326
632.40071525050882,0.00096189648064717208
632.42970136582596,0.00096071488399742766
632.45868748114322,0.00095918519775779418
632.48767359646035,0.00095731337110325446
632.51665971177761,0.00095510535320876447
632.54564582709475,0.00095256709324931265
632.57463194241188,0.00094970454039986158
632.60361805772914,0.00094652364383536903
632.63260417304627,0.00094303035273083117
632.66159028836341,0.00093923061626120688
632.69057640368067,0.0009351303836014497
632.7195625189978,0.00093073560392656417
632.74854863431494,0.00092605222641150436
632.7775347496322,0.00092108620023122125
632.80652086494933,0.0009158434745607253
632.83550698026647,0.00091032999857496748
632.86449309558373,0.00090455172144889603
632.89347921090086,0.0008985145923575275
632.922465326218,0.00089222456047580992
632.95145144153526,0.00088568757497868784
632.98043755685239,0.00087890958504118443
633.00942367216953,0.00087189653983824446
633.03840978748678,0.00086465438854481066
633.06739590280392,0.00085718908033590997
633.09638201812118,0.00084950656438645574
633.12536813343831,0.00084161278987147773
633.15435424875545,0.00083351370596591813
633.18334036407271,0.00082521526184471455
633.21232647938984,0.00081672340668290252
633.24131259470698,0.00080804408965542171
633.27029871002424,0.00079918325993720714
633.29928482534137,0.00079014686670329879
633.32827094065851,0.00078094085912863449
633.35725705597577,0.00077157118638814643
633.3862431712929,0.00076204379765688023
633.41522928661004,0.00075236464210977003
633.44421540192729,0.00074253966892174716
633.47320151724443,0.00073257482726786006
633.50218763256157,0.00072247606632304178
633.53117374787882,0.00071224933526222182
633.56015986319596,0.00070190058326045207
633.58914597851322,0.00069143575949262245
633.61813209383035,0.00068086081313378473
633.64711820914749,0.00067018169335886972
633.67610432446475,0.00065940434934280614
633.70509043978188,0.00064853473026064892
633.73407655509902,0.00063757878528732722
633.76306267041628,0.00062654246359776793
633.79204878573341,0.00061543171436702869
633.82103490105055,0.00060425248677003693
633.8500210163678,0.00059301072998171986
633.87900713168494,0.00058171239317713654
633.90799324700208,0.00057036342553121373
633.93697936231933,0.00055896977621887681
633.96596547763647,0.00054753739441518699
633.99495159295361,0.00053607222929506954
634.02393770827086,0.00052458023003345167
634.052923823588,0.00051306734580539297
634.08190993890526,0.00050153952578577468
634.11089605422239,0.00049000271914965781
634.13988216953953,0.0004784628750719682
634.16886828485679,0.00046692594272763178
634.19785440017392,0.00045539787129170894
634.22684051549106,0.00044388460993912668
634.25582663080831,0.00043239210784480956
634.28481274612545,0.00042092631418381928
634.31379886144259,0.00040949317813108126
634.34278497675984,0.00039809864886152185
634.37177109207698,0.00038674867555020141
634.40075720739412,0.00037544920737204589
634.42974332271137,0.00036420619350198256
634.45872943802851,0.00035302558311506933
634.48771555334565,0.00034191332538623435
634.5167016686629,0.0003308753694904047
634.54568778398004,0.00031991766460263727
634.57467389929718,0.0003090461598978603
634.60366001461443,0.00029826680455100193
634.63264612993157,0.00028758554773711801
634.66163224524882,0.00027700833863109563
634.69061836056596,0.00026654112640798772
634.7196044758831,0.00025618986024272507
634.74859059120035,0.00024596048931023744
634.77757670651749,0.00023585896278557672
634.80656282183463,0.00022589122984367234
634.83554893715188,0.00021606323965945771
634.86453505246902,0.00020638094140798085
634.89352116778616,0.00019685028426417328
634.92250728310341,0.00018747721740296978
634.95149339842055,0.0001782676899994145
634.98047951373769,0.00016922765122844171
635.00946562905494,0.00016036305026498695
635.03845174437208,0.00015167983628409129
635.06743785968922,0.00014318395846069066
635.09642397500647,0.00013488136596972333
635.12541009032361,0.00012677800798622472
635.15439620564086,0.00011887983368510355
635.183382320958,0.00011119279224139171
635.21236843627514,0.00010372283283002846
635.24135455159239,9.6475904625957423e-05
635.27034066690953,8.9457956804205778e-05
635.29932678222667,8.2674938539716025e-05
635.32831289754392,7.6132799007433264e-05
635.35729901286106,6.98374873823799e-05
635.3862851281782,6.3794952839500924e-05
635.41527124349545,5.8011144553744365e-05
635.44425735881259,5.2492011700126882e-05
635.47324347412973,4.7243503453596176e-05
635.50222958944698,4.227156898910418e-05
635.53121570476412,3.7582157481660505e-05
635.56020182008126,3.318121810621643e-05
635.58918793539851,2.9074700037726598e-05
635.61817405071565,2.5268552451194657e-05
635.64716016603279,2.1768724521574381e-05
635.67614628135004,1.8581165423825182e-05
635.70513239666718,1.5711824332942468e-05
635.73411851198443,1.316665042387481e-05
635.76310462730157,1.0951592871613169e-05
635.79209074261871,9.0726008511176097e-06
635.82107685793596,7.5356235373536147e-06
635.8500629732531,6.3466101053043407e-06
635.87904908857024,5.5115097299336452e-06
635.90803520388749,5.0362715862115656e-06
635.93702131920463,4.9268448491124762e-06
635.96600743452177,5.1891786936043545e-06
635.99499354983902,5.8292222946617917e-06
636.02397966515616,6.8529248272504884e-06
636.0529657804733,8.2662354663430842e-06
636.08195189579055,1.0075103386918182e-05
636.11093801110769,1.2285477763932591e-05
636.13992412642483,1.4903307772363397e-05
636.16891024174208,1.7934542587194299e-05
636.19789635705922,2.1385131383372131e-05
636.22688247237647,2.5261023335895012e-05
636.25586858769361,2.9568167619703598e-05
636.28485470301075,3.4312513409782671e-05
636.313840818328,3.9500009881124386e-05
636.34282693364514,4.5136606208659642e-05
636.37181304896228,5.1228251567377774e-05
636.40079916427953,5.7780895132276576e-05
636.42978527959667,6.4800486078275994e-05
636.45877139491381,7.2292973580371004e-05
636.48775751023106,8.0264306813565252e-05
636.5167436255482,8.8720434952766544e-05
636.54572974086534,9.7667307172976032e-05
636.57471585618259,0.00010711087264920311
636.60370197149973,0.00011705708055634431
636.63268808681687,0.0001275118800694062
636.66167420213412,0.00013848122036340437
636.69066031745126,0.00014997105061322329
636.7196464327684,0.0001619873199938753
636.74863254808565,0.00017453597768038248
636.77761866340279,0.00018762297284761673
636.80660477872004,0.00020125425467065153
636.83559089403718,0.000215435772324351
636.86457700935432,0.00023017347498373851
636.89356312467157,0.00024547331182384578
636.92254923998871,0.00026134123201952339
636.95153535530585,0.00027778318474580197
636.9805214706231,0.00029480511917771986
637.00950758594024,0.00031241298449011365
637.03849370125738,0.0003306127298580209
637.06747981657463,0.0003494103044564868
637.09646593189177,0.00036881165746033523
637.12545204720891,0.00038882273804460897
637.15443816252616,0.00040944949538436113
637.1834242778433,0.00043069787865440093
637.21241039316044,0.00045257383702977931
637.24139650847769,0.00047508331968555565
637.27038262379483,0.0004982322757965253
637.29936873911208,0.00052202665453784025
637.32835485442922,0.00054647240508428447
637.35734096974636,0.00057157547661092136
637.38632708506361,0.00059734181829282395
637.41531320038075,0.00062379364397648258
637.44429931569789,0.0006510879324640044
637.47328543101514,0.00067944827246403249
637.50227154633228,0.00070909872540473652
637.53125766164942,0.00074026335271461913
637.56024377696667,0.0007731662158222052
637.58922989228381,0.0008080313761556308
637.61821600760095,0.00084508289514341342
637.6472021229182,0.00088454483421410602
637.67618823823534,0.00092664125479579261
637.70517435355248,0.00097159621831701499
637.73416046886973,0.001019633786206362
637.76314658418687,0.001070978019891849
637.79213269950401,0.0011258529808020519
637.82111881482126,0.0011844827303655998
637.8501049301384,0.0012470913300104275
637.87909104545565,0.0013139028411654199
637.90807716077279,0.0013851413252584468
637.93706327608993,0.0014610308437181547
637.96604939140718,0.0015417954579732627
637.99503550672432,0.0016276592294515303
638.02402162204146,0.0017188462195816584
638.05300773735871,0.0018155804897924291
638.08199385267585,0.0019180861015114774
638.11097996799299,0.0020265871161675654
638.13996608331024,0.0021413075951895464
638.16895219862738,0.0022624716000049158
638.19793831394452,0.0023903031920425024
638.22692442926177,0.002525026432731242
638.25591054457891,0.0026668653834984717
638.28489665989605,0.0028160441057730975
638.3138827752133,0.0029729871739388875
638.34286889053044,0.0031405188370209601
638.37185500584769,0.0033230447852948971
638.40084112116483,0.0035249986019779706
638.42982723648197,0.0037508138702895535
638.45881335179922,0.0040049241734493955
638.48779946711636,0.0042917630946742048
638.5167855824335,0.004615764217183611
638.54577169775075,0.0049813611241978258
638.57475781306789,0.0053929873989326848
638.60374392838503,0.0058550766246082278
638.63273004370228,0.0063720623844452842
638.66171615901942,0.0069483782616585055
638.69070227433656,0.0075884578394684963
638.71968838965381,0.0082967347010968629
638.74867450497095,0.0090776424297567548
638.77766062028809,0.009935614608669506
638.80664673560534,0.010875084821057653
638.83563285092248,0.011900486650132533
638.86461896623973,0.013016253679120912
638.89360508155687,0.014226819491232751
638.92259119687401,0.015536617669690927
638.95157731219126,0.016950081797719885
638.9805634275084,0.018471645458527246
639.00954954282554,0.02010574223533703
639.03853565814279,0.021856805711375039
639.06752177345993,0.023729269469846236
639.09650788877707,0.025727567093975938
639.12549400409432,0.027856132166991458
639.15448011941146,0.030119398272094804
639.1834662347286,0.032521798992512743
639.21245235004585,0.035067964677721108
639.24143846536299,0.037767351741878362
639.27042458068013,0.040634415722668647
639.29941069599738,0.043683843549250409
639.32839681131452,0.046930322150745912
639.35738292663166,0.050388538456312845
639.38636904194891,0.054073179395112261
639.41535515726605,0.057998931896261416
639.4443412725833,0.062180482888937329
639.47332738790044,0.066632519302253376
639.50231350321758,0.071369728065371563
639.53129961853483,0.076406796107458361
639.56028573385197,0.081758410357620465
639.58927184916911,0.087439257745023091
639.61825796448636,0.093464025198836703
639.6472440798035,0.099847399648160209
639.67623019512064,0.10660406802216266
639.70521631043789,0.11374871725001902
639.73420242575503,0.12128577211073796
639.76318854107217,0.12913582154960174
639.79217465638942,0.13717850669114059
639.82116077170656,0.14529319115870185
639.8501468870237,0.1533592385757275
639.87913300234095,0.1612560125656588
639.90811911765809,0.16886454168465975
639.93710523297523,0.1761457728886591
639.96609134829248,0.18317423042853109
639.99507746360962,0.19003309704964932
640.02406357892687,0.19680555549749662
640.05304969424401,0.20357478851744837
640.08203580956115,0.21042397885495967
640.1110219248784,0.21743630925548671
640.14000804019554,0.22467825002435038
640.16899415551268,0.23209660863615389
640.19798027082993,0.23958603060563896
640.22696638614707,0.24704094533484716
640.25595250146421,0.25435578222590849
640.28493861678146,0.26142497068095083
640.3139247320986,0.26814294010201911
640.34291084741574,0.27440411989124236
640.37189696273299,0.28010293945074222
640.40088307805013,0.2851338281825746
640.42986919336727,0.28939121548886354
640.45885530868452,0.2927695307717213
640.48784142400166,0.29516320343322167
640.51682753931891,0.29652472107807104
640.54581365463605,0.29704688951805525
640.57479976995319,0.29698468534663514
640.60378588527044,0.29659308524645417
640.63277200058758,0.29612706590016136
640.66175811590472,0.29584160399040083
640.69074423122197,0.295991532558179
640.71973034653911,0.29674694677100882
640.74871646185625,0.29805052062138293
640.7777025771735,0.29980717142841601
640.80668869249064,0.30192181651120104
640.83567480780778,0.30429937318885092
640.86466092312503,0.30684475878048301
640.89364703844217,0.30946289060602894
640.92263315375931,0.31207269366311124
640.95161926907656,0.31464846575827826
640.9806053843937,0.31717818535153752
641.00959149971095,0.3196498309029363
641.03857761502809,0.32205138087248297
641.06756373034523,0.32437081372021476
641.09654984566248,0.326596107906168
641.12553596097962,0.32871524189035284
641.15452207629676,0.33071619413280584
641.18350819161401,0.33258694309356152
641.21249430693115,0.33431616028234451
641.24148042224829,0.33592810817232399
641.27046653756554,0.33749902073506099
641.29945265288268,0.33910924902421374
641.32843876819982,0.340839144093459
641.35742488351707,0.34276905699647525
641.38641099883421,0.34497933878691805
641.41539711415135,0.34755011539551006
641.4443832294686,0.35052226210152609
641.47336934478574,0.35385291671515512
641.50235546010288,0.35748845842902327
641.53134157542013,0.36137526643576162
641.56032769073727,0.36545971992795495
641.58931380605452,0.36968819809825026
641.61829992137166,0.3740070801392294
641.6472860366888,0.37836274524352426
641.67627215200605,0.38270157260376697
641.70525826732319,0.38696994141253871
641.73424438264033,0.39111423086247205
641.76323049795758,0.39508082014619761
641.79221661327472,0.39881608845629912
641.82120272859186,0.4022730722494488
641.85018884390911,0.40543910441330727
641.87917495922625,0.40831253066926165
641.90816107454339,0.4108917018734804
641.93714718986064,0.41317496888212696
641.96613330517778,0.41516068255133881
641.99511942049492,0.4168471937372808
642.02410553581217,0.41823285329611304
642.05309165112931,0.41931601208398001
642.08207776644656,0.42009502095704554
642.1110638817637,0.4205682307714585
642.14004999708084,0.42073399238337827
642.16903611239809,0.42059065664895856
642.19802222771523,0.42013657442435604
642.22700834303237,0.41937009656572594
642.25599445834962,0.41828957392921873
642.28498057366676,0.4168933573709982
642.3139666889839,0.41517980114274367
642.34295280430115,0.41315317872068585
642.37193891961829,0.41083584621948538
642.40092503493543,0.4082536006863875
642.42991115025268,0.40543223916863363
642.45889726556982,0.40239755871349914
642.48788338088696,0.39917535636822621
642.51686949620421,0.39579142918005394
642.54585561152135,0.39227157419626213
642.57484172683849,0.38864158846409047
642.60382784215574,0.38492726903077751
642.63281395747288,0.38115441294360508
642.66180007279013,0.37734881724979674
642.69078618810727,0.37353627899663533
642.71977230342441,0.36974259484192795
642.74875841874166,0.36598901472813228
642.7777445340588,0.36228094613933731
642.80673064937594,0.35862034817211413
642.83571676469319,0.35500917992303466
642.86470288001033,0.35144940048871287
642.89368899532747,0.34794296896572058
642.92267511064472,0.34449184445063036
642.95166122596186,0.34109798604005492
642.980647341279,0.33776335283056663
643.00963345659625,0.33448990391873851
643.03861957191339,0.33127959840118243
643.06760568723053,0.3281343953744712
643.09659180254778,0.32505625393517862
643.12557791786492,0.32204713317991485
