energy,intensity
629.00933975839894,-0.003618610146252455
629.03832587371608,-0.0035309568648549524
629.06731198903333,-0.0034441916166074926
629.09629810435047,-0.003358310798373205
629.12528421966761,-0.003273310807014197
629.15427033498486,-0.0031891880393925885
629.183256450302,-0.0031059388923714887
629.21224256561914,-0.0030235597628130132
629.24122868093639,-0.0029420470475792966
629.27021479625353,-0.0028613971435334229
629.29920091157078,-0.0027816064475372116
629.32818702688792,-0.0027026713564537361
629.35717314220506,-0.0026245882671451295
629.38615925752231,-0.0025473535764735417
629.41514537283945,-0.0024709636813020257
629.44413148815659,-0.0023954149784927259
629.47311760347384,-0.0023207038649078015
629.50210371879098,-0.0022468267374102851
629.53108983410812,-0.0021737799928623325
629.56007594942537,-0.0021015600281261105
629.58906206474251,-0.0020301632400646342
629.61804818005965,-0.0019595860255400672
629.6470342953769,-0.0018898247814145871
629.67602041069404,-0.0018208759045511911
629.70500652601118,-0.0017527357918120502
629.73399264132843,-0.0016854008400593523
629.76297875664557,-0.0016188674461560741
629.7919648719627,-0.0015531320069643996
629.82095098727996,-0.001488190919346524
629.8499371025971,-0.0014240405801654052
629.87892321791435,-0.0013606773862829891
629.90790933323149,-0.0012980977345622212
629.93689544854863,-0.0012362980218653013
629.96588156386588,-0.0011752746450544396
629.99486767918302,-0.0011150240009925646
630.02385379450016,-0.0010555424865418832
630.05283990981741,-0.00099682649856461486
630.08182602513455,-0.00093887243392367151
630.11081214045169,-0.00088167668948126794
630.13979825576894,-0.00082523566209963413
630.16878437108608,-0.00076954574864166164
630.19777048640321,-0.00071460334596957695
630.22675660172047,-0.00066040485094561667
630.25574271703761,-0.0006069466604326551
630.28472883235474,-0.00055422517129292796
630.313714947672,-0.00050223678038868128
630.34270106298914,-0.00045097788458277072
630.37168717830639,-0.00040044488073724433
630.40067329362353,-0.00035063416571494698
630.42965940894067,-0.00030154213637812735
630.45864552425792,-0.00025316518958904658
630.48763163957506,-0.00020549972221053326
630.5166177548922,-0.00015854213110484493
630.54560387020945,-0.00011228881313424937
630.57458998552659,-6.6736165161559687e-05
630.60357610084372,-2.1880584049041302e-05
630.63256221616098,2.2281533341029011e-05
630.66154833147812,6.5753790145854703e-05
630.69053444679525,0.0001085397895031633
630.71952056211251,0.00015064313455066892
630.74850667742965,0.00019206742842559207
630.77749279274678,0.00023281627426565037
630.80647890806404,0.00027289327520855112
630.83546502338118,0.00031230203439153105
630.86445113869831,0.00035104615495229984
630.89343725401557,0.00038912924002855632
630.92242336933271,0.00042655489275755418
630.95140948464996,0.00046332671627713576
630.9803955999671,0.00049944831372456563
631.00938171528423,0.00053492328823754026
631.03836783060149,0.0005697552429537459
631.06735394591863,0.00060394778101045983
631.09634006123576,0.00063750450554537238
631.12532617655302,0.00067042901969616121
631.15431229187016,0.00070272492660012004
631.18329840718729,0.0007343958293949299
631.21228452250455,0.00076544533121826333
631.24127063782169,0.00079587703520742623
631.27025675313882,0.00082569454450009397
631.29924286845608,0.00085490146223393139
631.32822898377322,0.00088350139154625969
631.35721509909035,0.00091149793557474587
631.38620121440761,0.00093889469745704775
631.41518732972474,0.00096569528033050125
631.444173445042,0.00099190328733286749
631.47315956035914,0.0010175223216014929
631.50214567567627,0.0010425559862740315
631.53113179099353,0.0010670078844881297
631.56011790631067,0.0010908816193811466
631.5891040216278,0.0011141807940907309
631.61809013694506,0.0011369090117545216
631.6470762522622,0.0011590698755098911
631.67606236757933,0.0011806669884944813
631.70504848289659,0.0012017039538459247
631.73403459821373,0.0012221843747016064
631.76302071353086,0.0012421118541991623
631.79200682884812,0.0012614899954762184
631.82099294416525,0.0012803224016701734
631.84997905948239,0.0012986126759186561
631.87896517479965,0.0013163644213592851
631.90795129011678,0.0013335812411294731
631.93693740543404,0.0013502667383669064
631.96592352075118,0.0013664245162090052
631.99490963606831,0.0013820581777933864
632.02389575138557,0.0013971713262576602
632.05288186670271,0.0014117675647392586
632.08186798201984,0.0014258504963757931
632.1108540973371,0.0014394237243048685
632.13984021265424,0.0014524908516639272
632.16882632797137,0.0014650554815905758
632.19781244328863,0.0014771212172224114
632.22679855860576,0.001488691661696891
632.2557846739229,0.0014997704181516135
632.28477078924016,0.001510361089724171
632.31375690455729,0.0015204672795520317
632.34274301987443,0.0015300925907727886
632.37172913519169,0.0015392406265240274
632.40071525050882,0.0015479149899432286
632.42970136582596,0.0015561192841679803
632.45868748114322,0.0015638571123358618
632.48767359646035,0.001571132077584365
632.51665971177761,0.0015779477830510965
632.54564582709475,0.0015843078318735547
632.57463194241188,0.0015902158271893191
632.60361805772914,0.00159567537213596
632.63260417304627,0.0016006900698509869
632.66159028836341,0.0016052635234719726
632.69057640368067,0.0016093993361364835
632.7195625189978,0.0016131011109820385
632.74854863431494,0.0016163724511462066
632.7775347496322,0.0016192169597665476
632.80652086494933,0.0016216382399805917
632.83550698026647,0.0016236398949259019
632.86449309558373,0.0016252255277400336
632.89347921090086,0.0016263987415605268
632.922465326218,0.0016271631395249392
632.95145144153526,0.0016275223247708222
632.98043755685239,0.0016274799004357243
633.00942367216953,0.0016270394696571986
633.03840978748678,0.001626204635572793
633.06739590280392,0.0016249790013200646
633.09638201812118,0.0016233661700365558
633.12536813343831,0.0016213697448598284
633.15435424875545,0.0016189933289274298
633.18334036407271,0.0016162405253768988
633.21232647938984,0.0016131149373458081
633.24131259470698,0.001609620167971699
633.27029871002424,0.0016057598203921078
633.29928482534137,0.0016015374977446139
633.32827094065851,0.001596956803166755
633.35725705597577,0.0015920213397960621
633.3862431712929,0.0015867347107701255
633.41522928661004,0.0015811005192264771
633.44421540192729,0.0015751223683026438
633.47320151724443,0.0015688038611362241
633.50218763256157,0.0015621486008647466
633.53117374787882,0.001555160190625733
633.56015986319596,0.0015478422335567909
633.58914597851322,0.0015401983327954134
633.61813209383035,0.0015322320914792113
633.64711820914749,0.0015239471127457063
633.67610432446475,0.0015153469997324157
633.70509043978188,0.0015064353555769578
633.73407655509902,0.0014972157834168512
633.76306267041628,0.0014876918863896082
633.79204878573341,0.0014778672676328554
633.82103490105055,0.0014677455302841065
633.8500210163678,0.0014573302774808716
633.87900713168494,0.0014466251123607834
633.90799324700208,0.0014356336380613528
633.93697936231933,0.0014243594577200863
633.96596547763647,0.0014128061744746233
633.99495159295361,0.001400977391462471
634.02393770827086,0.0013888767118211333
634.052923823588,0.0013765077386882557
634.08190993890526,0.001363874075201292
634.11089605422239,0.0013509793244978929
634.13988216953953,0.0013378270897155609
634.16886828485679,0.0013244209739917937
634.19785440017392,0.0013107645804642468
634.22684051549106,0.0012968615122704208
634.25582663080831,0.0012827153725478097
634.28481274612545,0.0012683297644340754
634.31379886144259,0.0012537082910667151
634.34278497675984,0.0012388545555832207
634.37177109207698,0.0012237721611212595
634.40075720739412,0.001208464710818325
634.42974332271137,0.0011929358078119076
634.45872943802851,0.0011771890552396799
634.48771555334565,0.0011612280562391317
634.5167016686629,0.0011450564139477519
634.54568778398004,0.0011286777315032167
634.57467389929718,0.0011120956120430161
634.60366001461443,0.0010953136587046335
634.63264612993157,0.0010783354746257523
634.66163224524882,0.0010611646629437902
634.69061836056596,0.0010438048267964334
634.7196044758831,0.001026259569321166
634.74859059120035,0.0010085324936554689
634.77757670651749,0.00099062720293703306
634.80656282183463,0.00097254730030333974
634.83554893715188,0.00095429638889186802
634.86453505246902,0.00093587807184031236
634.89352116778616,0.00091729595228615297
634.92250728310341,0.00089855363336686716
634.95149339842055,0.00087965471822015273
634.98047951373769,0.00086060280998348786
635.00946562905494,0.00084140151179434787
635.03845174437208,0.0008220544267904345
635.06743785968922,0.00080256515810922394
635.09642397500647,0.00078293730888819035
635.12541009032361,0.00076317448226503903
635.15439620564086,0.00074328028137716487
635.183382320958,0.00072325830936227674
635.21236843627514,0.00070311216935784642
635.24135455159239,0.00068284546450134631
635.27034066690953,0.00066246179793048648
635.29932678222667,0.00064196477278273805
635.32831289754392,0.00062135799219557202
635.35729901286106,0.0006006450593067003
635.3862851281782,0.00057982957725359456
635.41527124349545,0.00055891514917372274
635.44425735881259,0.00053790537820480057
635.47324347412973,0.00051680386748429678
635.50222958944698,0.00049561422014967975
635.53121570476412,0.00047434003933866651
635.56020182008126,0.00045298492818872545
635.58918793539851,0.00043155248983732335
635.61817405071565,0.0004100463274221796
635.64716016603279,0.0003884700440807612
635.67614628135004,0.00036682724295053438
635.70513239666718,0.00034512152716922038
635.73411851198443,0.00032335649987419977
635.76310462730157,0.00030153576420319413
635.79209074261871,0.00027966292329366978
635.82107685793596,0.00025774158028309168
635.8500629732531,0.0002357753383091831
635.87904908857024,0.00021376780050940888
635.90803520388749,0.00019172257002123385
635.93702131920463,0.00016964324998238183
635.96600743452177,0.00014753344353031798
635.99499354983902,0.00012539675380250648
636.02397966515616,0.00010323678393667159
636.0529657804733,8.1057137070278352e-05
636.08195189579055,5.8861416340790407e-05
636.11093801110769,3.6653224885932782e-05
636.13992412642483,1.4436165843170192e-05
636.16891024174208,-7.7861576500337301e-06
636.19789635705922,-3.0010142455953411e-05
636.22688247237647,-5.2232185437212282e-05
636.25586858769361,-7.4448683456084658e-05
636.28485470301075,-9.6656033375106692e-05
636.313840818328,-0.00011885063205681399
636.34282693364514,-0.00014102887636348186
636.37181304896228,-0.00016318716315764556
636.40079916427953,-0.00018532188930184127
636.42978527959667,-0.00020742945165834448
636.45877139491381,-0.00022950624708969005
636.48775751023106,-0.00025154867245841392
636.5167436255482,-0.00027355312462679158
636.54572974086534,-0.00029551600045735877
636.57471585618259,-0.00031743369681265011
636.60370197149973,-0.00033930261055494263
636.63268808681687,-0.00036111913854677108
636.66167420213412,-0.00038287967765066971
636.69066031745126,-0.00040458062472891653
636.7196464327684,-0.0004262183766440461
636.74863254808565,-0.00044778933025859172
636.77761866340279,-0.00046928988243483279
636.80660477872004,-0.00049071643003538706
636.83559089403718,-0.00051206536992253523
636.86457700935432,-0.00053333309895881042
636.89356312467157,-0.00055451601400674446
636.92254923998871,-0.00057561051192861956
636.95153535530585,-0.00059661298958696863
636.9805214706231,-0.00061751984384432186
637.00950758594024,-0.00063832747156296419
637.03849370125738,-0.00065903226960542689
637.06747981657463,-0.00067963063483423875
637.09646593189177,-0.00070011896411168806
637.12545204720891,-0.00072049365430030383
637.15443816252616,-0.00074075110226261439
637.1834242778433,-0.00076088770486091033
637.21241039316044,-0.00078089985895771913
637.24139650847769,-0.00080078396141556826
637.27038262379483,-0.00082053640909674993
637.29936873911208,-0.0008401535988638686
637.32835485442922,-0.00085963192757921875
637.35734096974636,-0.00087896779210532656
637.38632708506361,-0.00089815758930471615
637.41531320038075,-0.0009171682222220718
637.44429931569789,-0.00093572221559078887
637.47328543101514,-0.00095342130594343539
637.50227154633228,-0.0009698663725978071
637.53125766164942,-0.00098465829487191445
637.56024377696667,-0.00099739795208373967
637.58922989228381,-0.0010076862235511199
637.61821600760095,-0.0010151239885920469
637.6472021229182,-0.0010193121265244674
637.67618823823534,-0.0010198515166662857
637.70517435355248,-0.0010163430383354618
637.73416046886973,-0.0010083875708498937
637.76314658418687,-0.00099558599352757987
637.79213269950401,-0.00097753918568643555
637.82111881482126,-0.00095384802664429428
637.8501049301384,-0.00092411339571927794
637.87909104545565,-0.00088793617222908806
637.90807716077279,-0.00084491723549194435
637.93706327608993,-0.00079465746482565566
637.96604939140718,-0.00073675773954791726
637.99503550672432,-0.00067081893897711958
638.02402162204146,-0.00059644194243098825
638.05300773735871,-0.00051322762922711746
638.08199385267585,-0.00042077687868409563
638.11097996799299,-0.00031869057011955177
638.13996608331024,-0.00020656958285096409
638.16895219862738,-8.4014796197147803e-05
638.19793831394452,4.9372910524378769e-05
638.22692442926177,0.00019399265799626797
638.25591054457891,0.00035024356689944804
638.28489665989605,0.00051852475791652731
638.3138827752133,0.00069938408661999259
638.34286889053044,0.00089514941997050036
638.37185500584769,0.0011093216937234597
638.40084112116483,0.0013454225338354422
638.42982723648197,0.0016069735662654855
638.45881335179922,0.0018974964169730301
638.48779946711636,0.0022205127119140468
638.5167855824335,0.0025795440770478534
638.54577169775075,0.0029781121383343338
638.57475781306789,0.0034197385217286124
638.60374392838503,0.0039079448531904098
638.63273004370228,0.0044462527586801798
638.66171615901942,0.0050381838641519478
638.69070227433656,0.0056872597955659639
638.71968838965381,0.0063970021788833722
638.74867450497095,0.0071709326400568553
638.77766062028809,0.0080125728050473161
638.80664673560534,0.0089254442998167177
638.83563285092248,0.0099130687503161466
638.86461896623973,0.010978967782511617
638.89360508155687,0.012126663022353022
638.92259119687401,0.013359676095802622
638.95157731219126,0.014681528628824018
638.9805634275084,0.016095742247365093
639.00954954282554,0.01760583857738909
639.03853565814279,0.019215339244860765
639.06752177345993,0.020927765875725739
639.09650788877707,0.022746640095948355
639.12549400409432,0.024675483531494659
639.15448011941146,0.026717817808307759
639.1834662347286,0.028877164552353236
639.21245235004585,0.031157291073009866
639.24143846536299,0.033567990530409
639.27042458068013,0.036125298017630834
639.29941069599738,0.038845537544414131
639.32839681131452,0.041745033120465395
639.35738292663166,0.044840108755522731
639.38636904194891,0.048147088459327331
639.41535515726605,0.051682296241581105
639.4443412725833,0.055462056112039658
639.47332738790044,0.059502692080401196
639.50231350321758,0.063820528156407832
639.53129961853483,0.068431888349806
639.56028573385197,0.073353096670287415
639.58927184916911,0.078600477127597268
639.61825796448636,0.084190353731486034
639.6472440798035,0.090139050491637646
639.67623019512064,0.096462891417801122
639.70521631043789,0.10317820051973141
639.73420242575503,0.11029192701255888
639.76318854107217,0.1177344334594536
639.79217465638942,0.12539867531069465
639.82116077170656,0.13317735451056159
639.8501468870237,0.14096317300342415
639.87913300234095,0.14864883273365198
639.90811911765809,0.15612846629304525
639.93710523297523,0.163364878750416
639.96609134829248,0.17041847014892589
639.99507746360962,0.17735708062394523
640.02406357892687,0.18424855031095416
640.05304969424401,0.191160719345324
640.08203580956115,0.19816142786250715
640.1110219248784,0.20529615951353622
640.14000804019554,0.21250955372034877
640.16899415551268,0.2197178289533884
640.19798027082993,0.2268372020635627
640.22696638614707,0.23378388990169544
640.25595250146421,0.24047410931869487
640.28493861678146,0.24682407716546501
640.3139247320986,0.25275001029283578
640.34291084741574,0.25816812555171276
640.37189696273299,0.26299463979299359
640.40088307805013,0.26714576986752009
640.42986919336727,0.27053773262619235
640.45885530868452,0.27308674491989865
640.48784142400166,0.27470902359949867
640.51682753931891,0.27536938443681908
640.54581365463605,0.27523380695014948
640.57479976995319,0.27452031210529393
640.60378588527044,0.27344692094270723
640.63277200058758,0.27223165450285797
640.66175811590472,0.2710925338262018
640.69074423122197,0.27024757995319598
640.71973034653911,0.26991101856026783
640.74871646185625,0.2701670964688544
640.7777025771735,0.27094072602691416
640.80668869249064,0.27214707667114951
640.83567480780778,0.27370131783827156
640.86466092312503,0.2755186189649963
640.89364703844217,0.27751414948861808
640.92263315375931,0.27961302527025689
640.95161926907656,0.28177968071034915
640.9806053843937,0.28398826442324065
641.00959149971095,0.28621292502331103
641.03857761502809,0.28842781112490556
641.06756373034523,0.29060707134239561
641.09654984566248,0.29272485429015205
641.12553596097962,0.29475530858252091
641.15452207629676,0.29667258283387349
641.18350819161401,0.29845082565857894
641.21249430693115,0.30006491389718465
641.24148042224829,0.30152712181150521
641.27046653756554,0.30290433303132919
641.29945265288268,0.30426775723549832
641.32843876819982,0.30568860410287069
641.35742488351707,0.30723808331230507
641.38641099883421,0.30898740454264195
641.41539711415135,0.31100759147932711
641.4443832294686,0.31333723947280506
641.47336934478574,0.31594576115681461
641.50235546010288,0.31879368054690194
641.53134157542013,0.3218415216586174
641.56032769073727,0.32504980850747467
641.58931380605452,0.32837906510903658
641.61829992137166,0.33178981547881448
641.6472860366888,0.33524258363235926
641.67627215200605,0.33869789358522212
641.70525826732319,0.34211626935291384
641.73424438264033,0.34545823495098554
641.76323049795758,0.34868431439498776
641.79221661327472,0.35175503170043254
641.82120272859186,0.35463574315018598
641.85018884390911,0.35731669956659207
641.87917495922625,0.35979614558989215
641.90816107454339,0.36207232958748392
641.93714718986064,0.36414349992676176
641.96613330517778,0.36600790497509605
641.99511942049492,0.36766379309988184
642.02410553581217,0.36910941266851133
642.05309165112931,0.37034301204835957
642.08207776644656,0.37136283960682309
642.1110638817637,0.37216714371128057
642.14004999708084,0.37275417272912292
642.16903611239809,0.37312217502773803
642.19802222771523,0.37326939897450956
642.22700834303237,0.37319409293682609
642.25599445834962,0.37289450528207257
642.28498057366676,0.37236888437763815
642.3139666889839,0.37161592540547872
642.34295280430115,0.37064324811480642
642.37193891961829,0.36946670458585529
642.40092503493543,0.36810245498319061
642.42991115025268,0.36656665947137468
642.45889726556982,0.36487547821498856
642.48788338088696,0.36304507137859504
642.51686949620421,0.36109159912675526
642.54585561152135,0.35903122162405304
642.57484172683849,0.3568800990350498
642.60382784215574,0.3546543915243055
642.63281395747288,0.35237025925640625
642.66180007279013,0.35004386239590307
642.69078618810727,0.34769133950851261
642.71977230342441,0.34532443231593618
642.74875841874166,0.34294516056258945
642.7777445340588,0.34055424207113172
642.80673064937594,0.33815239466419394
642.83571676469319,0.33574033616440724
642.86470288001033,0.33331878439443086
642.89368899532747,0.33088845717689619
642.92267511064472,0.32845007233443391
642.95166122596186,0.32600434768970377
642.980647341279,0.3235520010653366
643.00963345659625,0.32109375028396336
643.03861957191339,0.31863031316824381
643.06760568723053,0.31616240754080877
643.09659180254778,0.31369075122428908
643.12557791786492,0.3112160620413445
643.15456403318217,0.30873905781459626
