energy,intensity
629.00933975839894,-0.0024816934097669644
629.03832587371608,-0.002414624641718047
629.06731198903333,-0.0023484318277569049
629.09629810435047,-0.0022831098866529609
629.12528421966761,-0.0022186537371748543
629.15427033498486,-0.0021550582980912397
629.183256450302,-0.0020923184881715172
629.21224256561914,-0.0020304292261843384
629.24122868093639,-0.0019693854308983666
629.27021479625353,-0.0019091820210829832
629.29920091157078,-0.001849813915506617
629.32818702688792,-0.0017912760329386358
629.35717314220506,-0.0017335632921477073
629.38615925752231,-0.0016766706119025108
629.41514537283945,-0.0016205929109723957
629.44413148815659,-0.0015653251081260381
629.47311760347384,-0.0015108621221321286
629.50210371879098,-0.0014571988717599952
629.53108983410812,-0.0014043302757783256
629.56007594942537,-0.0013522512529558182
629.58906206474251,-0.0013009567220617839
629.61804818005965,-0.0012504416018649185
629.6470342953769,-0.0012007008111339301
629.67602041069404,-0.0011517292686381104
629.70500652601118,-0.0011035218931461656
629.73399264132843,-0.0010560736034268122
629.76297875664557,-0.0010093793182493244
629.7919648719627,-0.00096343395638241671
629.82095098727996,-0.00091823243659481418
629.8499371025971,-0.00087376967765577377
629.87892321791435,-0.00083004059833384936
629.90790933323149,-0.00078704011739828448
629.93689544854863,-0.00074476315361780908
629.96588156386588,-0.00070320462576116231
629.99486767918302,-0.00066235945259757319
630.02385379450016,-0.00062222255289577817
630.05283990981741,-0.00058278884542452649
630.08182602513455,-0.00054405324895302851
630.11081214045169,-0.00050601068225003055
630.13979825576894,-0.00046865606408428927
630.16878437108608,-0.00043198431322499976
630.19777048640321,-0.00039599034844091505
630.22675660172047,-0.00036066908850080162
630.25574271703761,-0.00032601545217383584
630.28472883235474,-0.00029202435822878154
630.313714947672,-0.00025869072543441068
630.34270106298914,-0.0002260094725598864
630.37168717830639,-0.00019397551837385386
630.40067329362353,-0.00016258378164546656
630.42965940894067,-0.0001318291811434997
630.45864552425792,-0.00010170663563673746
630.48763163957506,-7.2211063894318483e-05
630.5166177548922,-4.3337384685025054e-05
630.54560387020945,-1.5080516777649686e-05
630.57458998552659,1.2564621058684566e-05
630.60357610084372,3.9603110055187965e-05
630.63256221616098,6.6040031443061084e-05
630.66154833147812,9.1880466453194505e-05
630.69053444679525,0.00011712949631679118
630.71952056211251,0.00014179220226504503
630.74850667742965,0.00016587366552886038
630.77749279274678,0.00018937896733943439
630.80647890806404,0.00021231318892795358
630.83546502338118,0.0002346814115253352
630.86445113869831,0.00025648871636276943
630.89343725401557,0.000277740184671437
630.92242336933271,0.00029844089768226893
630.95140948464996,0.00031859593662652522
630.9803955999671,0.00033821038273514726
631.00938171528423,0.00035728931723931202
631.03836783060149,0.00037583782137019052
631.06735394591863,0.00039386097635873453
631.09634006123576,0.00041136386343611616
631.12532617655302,0.0004283515638334999
631.15431229187016,0.00044482915878184997
631.18329840718729,0.00046080172951233221
631.21228452250455,0.0004762743572561048
631.24127063782169,0.00049125212324414467
631.27025675313882,0.00050574010870761135
631.29924286845608,0.00051974339487765632
631.32822898377322,0.00053326706298526926
631.35721509909035,0.00054631619426160336
631.38620121440761,0.00055889586993780529
631.41518732972474,0.00057101117124487512
631.444173445042,0.00058266717941400528
631.47315956035914,0.00059386897567620292
631.50214567567627,0.00060462164126261263
631.53113179099353,0.00061493025740437263
631.56011790631067,0.0006247999053324995
631.5891040216278,0.00063423566627813328
631.61809013694506,0.00064324262147240623
631.6470762522622,0.00065182585214634597
631.67606236757933,0.00065999043953108769
631.70504848289659,0.00066774146485775788
631.73403459821373,0.00067508400935739437
631.76302071353086,0.00068202315426112668
631.79200682884812,0.00068856398080007798
631.82099294416525,0.00069471157020529486
631.84997905948239,0.00070047100370790175
631.87896517479965,0.00070584736253901758
631.90795129011678,0.00071084572792969795
631.93693740543404,0.00071547118111108031
631.96592352075118,0.0007197288033142273
631.99490963606831,0.00072362367577025514
632.02389575138557,0.00072716087971027524
632.05288186670271,0.00073034549636535895
632.08186798201984,0.00073318260696661692
632.1108540973371,0.00073567729274515896
632.13984021265424,0.00073783463493206193
632.16882632797137,0.0007396597147584351
632.19781244328863,0.00074115761345538208
632.22679855860576,0.00074233341225398873
632.2557846739229,0.0007431921923853603
632.28477078924016,0.00074373903508059619
632.31375690455729,0.00074397902157079005
632.34274301987443,0.00074391723308704269
632.37172913519169,0.00074355875086045157
632.40071525050882,0.00074290865612211619
632.42970136582596,0.00074197203010313464
632.45868748114322,0.00074075395403459918
632.48767359646035,0.00073925950914761852
632.51665971177761,0.00073749377667327808
632.54564582709475,0.00073546183784269081
632.57463194241188,0.00073316877388694788
632.60361805772914,0.00073061966603713664
632.63260417304627,0.00072781959552437644
632.66159028836341,0.00072477364357975466
632.69057640368067,0.0007214868914343568
632.7195625189978,0.00071796442031930678
632.74854863431494,0.00071421131146569045
632.7775347496322,0.00071023264610459028
632.80652086494933,0.00070603350546713409
632.83550698026647,0.00070161897078440674
632.86449309558373,0.0006969941232874866
632.89347921090086,0.00069216404420750842
632.922465326218,0.00068713381477555316
632.95145144153526,0.00068190851622269757
632.98043755685239,0.00067649322978008094
633.00942367216953,0.00067089303667878153
633.03840978748678,0.00066511301814987413
633.06739590280392,0.00065915825542450259
633.09638201812118,0.00065303382973371839
633.12536813343831,0.000646744822308667
633.15435424875545,0.00064029631438042441
633.18334036407271,0.00063369338718006086
633.21232647938984,0.00062694112193872756
633.24131259470698,0.00062004459988749649
633.27029871002424,0.00061300890225743842
633.29928482534137,0.00060583911027970621
633.32827094065851,0.00059854030518537106
633.35725705597577,0.00059111756820550126
633.3862431712929,0.00058357598057125399
633.41522928661004,0.00057592062351369809
633.44421540192729,0.00056815657826390139
633.47320151724443,0.00056028892605302174
633.50218763256157,0.00055232274811212905
633.53117374787882,0.00054426312567228824
633.56015986319596,0.00053611513996466127
633.58914597851322,0.00052788387222028215
633.61813209383035,0.00051957440367031405
633.64711820914749,0.00051119181554582242
633.67610432446475,0.00050274118907787284
633.70509043978188,0.00049422760549762944
633.73407655509902,0.00048565614603615653
633.76306267041628,0.00047703189192452018
633.79204878573341,0.00046835992439388469
633.82103490105055,0.00045964532467531523
633.8500210163678,0.00045089317399987512
633.87900713168494,0.00044210855359873183
633.90799324700208,0.00043329654470294823
633.93697936231933,0.00042446222854358869
633.96596547763647,0.00041561068635182034
633.99495159295361,0.00040674699935870715
634.02393770827086,0.00039787624879531174
634.052923823588,0.00038900351589280278
634.08190993890526,0.00038013388188220805
634.11089605422239,0.00037127242799469564
634.13988216953953,0.00036242423546132906
634.16886828485679,0.00035359438551317161
634.19785440017392,0.00034478795938139105
634.22684051549106,0.00033601003829705046
634.25582663080831,0.00032726570349121394
634.28481274612545,0.00031856003619504833
634.31379886144259,0.00030989811763961785
634.34278497675984,0.00030128502905598623
634.37177109207698,0.00029272585167531965
634.40075720739412,0.00028422566672868212
634.42974332271137,0.00027578955544713899
634.45872943802851,0.0002674225990618545
634.48771555334565,0.00025912987880389427
634.5167016686629,0.00025091647590432366
634.54568778398004,0.00024278747159430512
634.57467389929718,0.00023474794710490518
634.60366001461443,0.00022680298366719085
634.63264612993157,0.00021895766251232195
634.66163224524882,0.00021121706487133604
634.69061836056596,0.00020358627197539138
634.7196044758831,0.00019607036505555595
634.74859059120035,0.00018867442534289882
634.77757670651749,0.00018140353406857643
634.80656282183463,0.00017426277246365777
634.83554893715188,0.0001672572217592134
634.86453505246902,0.00016039196318639709
634.89352116778616,0.00015367207797627874
634.92250728310341,0.00014710264735993094
634.95149339842055,0.00014068875256850397
634.98047951373769,0.00013443547483306948
635.00946562905494,0.00012834789538470205
635.03845174437208,0.00012243109545454796
635.06743785968922,0.00011669015627368119
635.09642397500647,0.00011113015907317794
635.12541009032361,0.00010575618508418044
635.15439620564086,0.00010057331553774476
635.183382320958,9.5586631665009296e-05
635.21236843627514,9.0801214697051966e-05
635.24135455159239,8.6222145864953419e-05
635.27034066690953,8.1854506399847639e-05
635.29932678222667,7.7703377532813752e-05
635.32831289754392,7.3773840494936087e-05
635.35729901286106,7.0070976517342775e-05
635.3862851281782,6.659986683111652e-05
635.41527124349545,6.3365592667343493e-05
635.44425735881259,6.0373235257146622e-05
635.47324347412973,5.7627875831611319e-05
635.50222958944698,5.5134595621826469e-05
635.53121570476412,5.2898475858909793e-05
635.56020182008126,5.0924597773949198e-05
635.58918793539851,4.9218042598036496e-05
635.61817405071565,4.7783891562283554e-05
635.64716016603279,4.6627225897780664e-05
635.67614628135004,4.5753126835623974e-05
635.70513239666718,4.5166675606917979e-05
635.73411851198443,4.4872953442756549e-05
635.76310462730157,4.487704157424006e-05
635.79209074261871,4.5184021232464984e-05
635.82107685793596,4.5798973648532239e-05
635.8500629732531,4.6726980053535803e-05
635.87904908857024,4.7973121678574968e-05
635.90803520388749,4.9542479754755096e-05
635.93702131920463,5.1440135513161926e-05
635.96600743452177,5.3671170184898978e-05
635.99499354983902,5.6240665001075518e-05
636.02397966515616,5.9153701192769369e-05
636.0529657804733,6.2415359991087956e-05
636.08195189579055,6.6030722627144771e-05
636.11093801110769,7.0004870332009399e-05
636.13992412642483,7.434288433679295e-05
636.16891024174208,7.9049845872613579e-05
636.19789635705922,8.4130836170532306e-05
636.22688247237647,8.9590936461687127e-05
636.25586858769361,9.5435227977133316e-05
636.28485470301075,0.00010166879194798968
636.313840818328,0.00010829670960538142
636.34282693364514,0.00011532406218035438
636.37181304896228,0.00012275593090403224
636.40079916427953,0.00013059739700754488
636.42978527959667,0.00013885354172192815
636.45877139491381,0.00014752944627831105
636.48775751023106,0.00015663019190782779
636.5167436255482,0.00016616085984150523
636.54572974086534,0.00017612653131047671
636.57471585618259,0.00018653228754588174
636.60370197149973,0.000197383209778737
636.63268808681687,0.0002086843792401807
636.66167420213412,0.00022044087716135746
636.69066031745126,0.00023265778477327376
636.7196464327684,0.00024534018330707333
636.74863254808565,0.00025849315399390589
636.77761866340279,0.00027212177806476708
636.80660477872004,0.00028623113675086201
636.83559089403718,0.00030082631128317797
636.86457700935432,0.00031591238289286781
636.89356312467157,0.000331494432811091
636.92254923998871,0.00034757754226882463
636.95153535530585,0.00036416679249722623
636.9805214706231,0.00038126726472746241
637.00950758594024,0.00039888404019049672
637.03849370125738,0.00041702220011749383
637.06747981657463,0.00043568682573962632
637.09646593189177,0.00045488299828784539
637.12545204720891,0.00047461579899332187
637.15443816252616,0.000494890309087234
637.1834242778433,0.00051571160980052157
637.21241039316044,0.00053708478236436064
637.24139650847769,0.00055901490800993659
637.27038262379483,0.000581507067968176
637.29936873911208,0.00060456634347035281
637.32835485442922,0.00062819781574738483
637.35734096974636,0.00065240656603045982
637.38632708506361,0.00067719767555077346
637.41531320038075,0.00070260431695470913
637.44429931569789,0.00072889242125114321
637.47328543101514,0.00075644296428916606
637.50227154633228,0.00078563773837239117
637.53125766164942,0.00081685853580475284
637.56024377696667,0.00085048714889021648
637.58922989228381,0.000886905369932348
637.61821600760095,0.00092649499123510326
637.6472021229182,0.00096963780510248715
637.67618823823534,0.001016715603837991
637.70517435355248,0.0010681101797456053
637.73416046886973,0.001124203325129389
637.76314658418687,0.001185376832292731
637.79213269950401,0.0012520124935396712
637.82111881482126,0.0013244921011743335
637.8501049301384,0.0014031974474999801
637.87909104545565,0.00148851032482106
637.90807716077279,0.0015808125254407333
637.93706327608993,0.00168048584166315
637.96604939140718,0.0017879120657925763
637.99503550672432,0.0019034729901319983
638.02402162204146,0.0020275504069856517
638.05300773735871,0.0021605261086579041
638.08199385267585,0.0023027818874515413
638.11097996799299,0.0024546995356708977
638.13996608331024,0.0026166608456204554
638.16895219862738,0.0027890476096027743
638.19793831394452,0.002972241619922298
638.22692442926177,0.003166624668883641
638.25591054457891,0.0033725785487891081
638.28489665989605,0.0035904850519432666
638.3138827752133,0.0038208707836795259
638.34286889053044,0.0040659954251455709
638.37185500584769,0.0043292607946531772
638.40084112116483,0.0046140888551524919
638.42982723648197,0.0049239015695967071
638.45881335179922,0.0052621209009394137
638.48779946711636,0.0056321688121301677
638.5167855824335,0.0060374672661224413
638.54577169775075,0.0064814382258702556
638.57475781306789,0.0069675036543223375
638.60374392838503,0.0074990855144325529
638.63273004370228,0.0080796057691554807
638.66171615901942,0.0087124863814387783
638.69070227433656,0.0094011493142368216
638.71968838965381,0.010149016530504869
638.74867450497095,0.010959509993189264
638.77766062028809,0.011836051665245022
638.80664673560534,0.012782063509628197
638.83563285092248,0.013800967489283578
638.86461896623973,0.014896185567171386
638.89360508155687,0.016071139706235242
638.92259119687401,0.017329251869431496
638.95157731219126,0.018673944019717788
638.9805634275084,0.020108638120035788
639.00954954282554,0.021636756133342792
639.03853565814279,0.02326172002259758
639.06752177345993,0.024986951750739603
639.09650788877707,0.026815873280727251
639.12549400409432,0.028751906575520535
639.15448011941146,0.030798473598056476
639.1834662347286,0.032958996311294654
639.21245235004585,0.035237790167583681
639.24143846536299,0.037661085137979569
639.27042458068013,0.040277811549243363
639.29941069599738,0.04313795044607243
639.32839681131452,0.046291482873130105
639.35738292663166,0.049788389875112679
639.38636904194891,0.053678652496721831
639.41535515726605,0.058012251782612809
639.4443412725833,0.062839168777505672
639.47332738790044,0.068209384526048286
639.50231350321758,0.074171881571736389
639.53129961853483,0.080708560924830156
639.56028573385197,0.087692999515223663
639.58927184916911,0.094988928721850815
639.61825796448636,0.10246007992365053
639.6472440798035,0.10997018449947302
639.67623019512064,0.1173829738282568
639.70521631043789,0.12458450799743831
639.73420242575503,0.13157513920238173
639.76318854107217,0.13839169073372876
639.79217465638942,0.14507100172006096
639.82116077170656,0.1516499112898817
639.8501468870237,0.1581652585717731
639.87913300234095,0.16465388269431616
639.90811911765809,0.17115418254679052
639.93710523297523,0.17777942705764385
639.96609134829248,0.18474928789296755
639.99507746360962,0.1922915482654288
640.02406357892687,0.20060428302230349
640.05304969424401,0.2094199948439113
640.08203580956115,0.21810170904816878
640.1110219248784,0.22602867276490402
640.14000804019554,0.23312899526818459
640.16899415551268,0.23984919950749584
640.19798027082993,0.24665523024901462
640.22696638614707,0.25377391059694371
640.25595250146421,0.26086892868975048
640.28493861678146,0.26752296369799183
640.3139247320986,0.27332448652755753
640.34291084741574,0.27808626149097548
640.37189696273299,0.28191192124237352
640.40088307805013,0.28492448777073476
640.42986919336727,0.28724698306508895
640.45885530868452,0.2890024291144549
640.48784142400166,0.29031384790783205
640.51682753931891,0.29130082995718998
640.54581365463605,0.29206876198626769
640.57479976995319,0.29271935617153066
640.60378588527044,0.29335432468417044
640.63277200058758,0.29407537969537179
640.66175811590472,0.29498423337632634
640.69074423122197,0.29618259789822876
640.71973034653911,0.29776983329309359
640.74871646185625,0.29976474648860146
640.7777025771735,0.30208739845509908
640.80668869249064,0.30465181209043246
640.83567480780778,0.3073720102924748
640.86466092312503,0.31016201595910164
640.89364703844217,0.31293585198902774
640.92263315375931,0.31562200245796557
640.95161926907656,0.31820611694816325
640.9806053843937,0.320687968607207
641.00959149971095,0.32306733058272258
641.03857761502809,0.32534397602229781
641.06756373034523,0.3275176780735487
641.09654984566248,0.32958820988408943
641.12553596097962,0.33155534460151037
641.15452207629676,0.33341885537342603
641.18350819161401,0.33517851534744969
641.21249430693115,0.33683930633644521
641.24148042224829,0.3384453316766502
641.27046653756554,0.340058477166642
641.29945265288268,0.34174071794024441
641.32843876819982,0.34355402913129984
641.35742488351707,0.3455603858736529
641.38641099883421,0.34782176330112408
641.41539711415135,0.35039995415857078
641.4443832294686,0.35332495129494335
641.47336934478574,0.35655890555651215
641.50235546010288,0.36005525142674294
641.53134157542013,0.36376742338910478
641.56032769073727,0.36764885592702296
641.58931380605452,0.37165298352398218
641.61829992137166,0.3757332406634053
641.6472860366888,0.37984306182876243
641.67627215200605,0.38393588150352398
641.70525826732319,0.38796513417111222
641.73424438264033,0.39188425431499779
641.76323049795758,0.3956466764186497
641.79221661327472,0.39920583496549261
641.82120272859186,0.40252061973042025
641.85018884390911,0.40557802468018361
641.87917495922625,0.40837406824217992
641.90816107454339,0.41090477305150541
641.93714718986064,0.41316616174325232
641.96613330517778,0.4151542569524867
641.99511942049492,0.41686508131430144
642.02410553581217,0.4182946574637858
642.05309165112931,0.4194390080360122
642.08207776644656,0.42029415566607325
642.1110638817637,0.42085612298904618
642.14004999708084,0.42112093264001865
642.16903611239809,0.42108460725407371
642.19802222771523,0.42074316946629536
642.22700834303237,0.42009264191176787
642.25599445834962,0.41912904722557087
642.28498057366676,0.41784840804279533
642.3139666889839,0.41624675078298107
642.34295280430115,0.41432669909153291
642.37193891961829,0.41211103047841652
642.40092503493543,0.40962635751835635
642.42991115025268,0.40689929278607229
642.45889726556982,0.40395644885631654
642.48788338088696,0.40082443830381026
642.51686949620421,0.39752987370327103
642.54585561152135,0.39409936762945585
642.57484172683849,0.3905595326570831
642.60382784215574,0.38693698136086963
642.63281395747288,0.38325832631557455
642.66180007279013,0.37955018009590075
642.69078618810727,0.37583915527660833
642.71977230342441,0.37215133147646601
642.74875841874166,0.36849974391311263
642.7777445340588,0.36488393094482313
642.80673064937594,0.36130280744924337
642.83571676469319,0.35775528830402009
642.86470288001033,0.35424028838684135
642.89368899532747,0.35075672257535356
642.92267511064472,0.34730350574720359
642.95166122596186,0.34387955278007892
642.980647341279,0.3404837785516262
643.00963345659625,0.33711509793949285
643.03861957191339,0.33377242582136546
643.06760568723053,0.33045467707489112
643.09659180254778,0.32716076657771753
643.12557791786492,0.32388960920753063
643.15456403318217,0.32064011984196528
