energy,intensity
519.98997854872653,0.001300917997825246
520.0397789891216,0.0011694637894593659
520.08957942951668,0.0010424438836701255
520.13937986991175,0.00091980065554550419
520.18918031030694,0.00080147648017321604
520.23898075070201,0.00068741373264177949
520.28878119109709,0.00057755478803889866
520.33858163149216,0.00047184202145255294
520.38838207188724,0.00037021780797072054
520.43818251228231,0.00027262452268138083
520.48798295267738,0.00017900454067251291
520.53778339307246,8.9300237032095532e-05
520.58758383346765,3.4539868479166079e-06
520.63738427386272,-7.8591834791653427e-05
520.6871847142578,-0.00015689485279883668
520.73698515465287,-0.0002315126920856538
520.78678559504795,-0.00030250297756412493
520.83658603544302,-0.00036992333414627258
520.88638647583809,-0.00043383138674411549
520.93618691623317,-0.00049428476026967751
520.98598735662836,-0.00055134107963510407
521.03578779702343,-0.00060505796975215671
521.08558823741851,-0.0006554930555329908
521.13538867781358,-0.00070270396188962703
521.18518911820865,-0.00074674831373408601
521.23498955860373,-0.00078768373597838789
521.2847899989988,-0.00082556785353455741
521.33459043939388,-0.00086045829131461212
521.38439087978907,-0.00089241267423064243
521.43419132018414,-0.0009214886271945265
521.48399176057922,-0.00094774377511836036
521.53379220097429,-0.00097123574291416322
521.58359264136936,-0.00099202215549395794
521.63339308176444,-0.0010101606377697653
521.68319352215951,-0.0010257088146536058
521.73299396255459,-0.0010387243110575027
521.78279440294978,-0.0010492647518934954
521.83259484334485,-0.0010573877620735576
521.88239528373992,-0.0010631509665097389
521.932195724135,-0.001066611990114059
521.98199616453007,-0.0010678284577985391
522.03179660492515,-0.0010668579944751976
522.08159704532022,-0.0010637582250560612
522.1313974857153,-0.0010585867744531479
522.18119792611049,-0.0010514012675784594
522.23099836650556,-0.0010422593293440497
522.28079880690063,-0.0010312185846619258
522.33059924729571,-0.0010183366584441095
522.38039968769078,-0.0010036711756026212
522.43020012808586,-0.00098727976104948426
522.48000056848093,-0.00096922003969671653
522.52980100887601,-0.0009495496364563407
522.57960144927119,-0.00092832617624032641
522.62940188966627,-0.00090560728396079228
522.67920233006134,-0.00088145058452971563
522.72900277045642,-0.00085591370285911024
522.77880321085149,-0.00082905426386100463
522.82860365124657,-0.00080092989244741873
522.87840409164164,-0.00077159821353036816
522.92820453203683,-0.0007411168520218089
522.9780049724319,-0.00070954343283389685
523.02780541282698,-0.00067693558087858908
523.07760585322205,-0.0006433509210679025
523.12740629361713,-0.00060884707831386183
523.1772067340122,-0.00057348167752848637
523.22700717440728,-0.00053731234362379594
523.27680761480235,-0.00050039670151181311
523.32660805519754,-0.00046279237610447163
523.37640849559261,-0.00042455699231396584
523.42620893598769,-0.00038574817505223063
523.47600937638276,-0.00034642354923128502
523.52580981677784,-0.00030664073976315677
523.57561025717291,-0.00026645737155985797
523.62541069756799,-0.00022593106953341233
523.67521113796306,-0.00018511945859584668
523.72501157835825,-0.00014408016365908166
523.77481201875332,-0.00010287080963532974
523.8246124591484,-6.1549021436517468e-05
523.87441289954347,-2.0172423974662039e-05
523.92421333993855,2.1201357838211793e-05
523.97401378033362,6.2514699090081565e-05
524.0238142207287,0.0001037099748689294
524.07361466112377,0.0001447295602627326
524.12341510151896,0.00018551583035956485
524.17321554191403,0.00022601116024721871
524.22301598230911,0.00026615792501375916
524.27281642270418,0.0003058984997471745
524.32261686309926,0.00034517525953544156
524.37241730349433,0.00038393057946653768
524.42221774388941,0.00042210683462844134
524.47201818428448,0.00045964640010913432
524.52181862467967,0.00049649165099667557
524.57161906507474,0.00053258496237887864
524.62141950546982,0.00056786870934380409
524.67121994586489,0.00060228526697943176
524.72102038625997,0.00063577701037374301
524.77082082665504,0.00066828631461471387
524.82062126705011,0.00069975555479032646
524.87042170744519,0.00073012710598855562
524.92022214784038,0.00075934334329745372
524.97002258823545,0.00078734664180485586
525.01982302863053,0.00081407937659881452
525.0696234690256,0.00083948392276730574
525.11942390942068,0.00086350265539831357
525.16922434981575,0.00088607794957981136
525.21902479021082,0.00090715218039978771
525.2688252306059,0.00092666772294620545
525.31862567100109,0.00094456695230709796
525.36842611139616,0.00096079224357035358
525.41822655179124,0.00097528597182399551
525.46802699218631,0.00098799051215600511
525.51782743258138,0.00099884823965436199
525.56762787297646,0.0010078015294070417
525.61742831337153,0.0010147927565020245
525.66722875376672,0.0010197642960272954
525.7170291941618,0.0010226585230708185
525.76682963455687,0.0010234178127205751
525.81663007495195,0.0010219845400645574
525.86643051534702,0.0010183010801907354
525.91623095574209,0.0010123098081870898
525.96603139613717,0.0010039530991415959
526.01583183653224,0.00099317332814224252
526.06563227692743,0.00097991287027696843
526.11543271732251,0.00096411410063381754
526.16523315771758,0.00094571939430073207
526.21503359811265,0.00092467112636569824
526.26483403850773,0.00090091167191669406
526.3146344789028,0.00087438340604170022
526.36443491929788,0.00084502870382869211
526.41423535969295,0.00081278994036564848
526.46403580008814,0.00077760949074047252
526.51383624048322,0.00073942973004129022
526.56363668087829,0.0006981930333560157
526.61343712127336,0.00065384177577262491
526.66323756166844,0.00060631833237909149
526.71303800206351,0.0005555650782633969
526.76283844245859,0.00050152438851352392
526.81263888285366,0.00044413863821745031
526.86243932324885,0.00038335020246300623
526.91223976364392,0.00031910145633845744
526.962040204039,0.00025133477493164211
527.01184064443407,0.00017999253333053736
527.06164108482915,0.00010501710662312846
527.11144152522422,2.6350869897390693e-05
527.1612419656193,-5.6063801758697961e-05
527.21104240601437,-0.00014228453325715768
527.26084284640956,-0.00023236894951021695
527.31064328680463,-0.00032637467542948842
527.36044372719971,-0.00042435933592719521
527.41024416759478,-0.0005263805559153564
527.46004460798986,-0.00063249596030599603
527.50984504838493,-0.00074276317401112595
527.55964548878001,-0.00085723982194277446
527.60944592917508,-0.00097598291705950366
527.65924636957027,-0.0010984184822785854
527.70904680996534,-0.0012221500200014876
527.75884725036042,-0.0013444539227954607
527.80864769075549,-0.0014626065832274648
527.85844813115057,-0.0015738843938644675
527.90824857154564,-0.0016755637472734453
527.95804901194072,-0.0017649210360213459
528.00784945233579,-0.0018392326526751382
528.05764989273098,-0.0018957749898019067
528.10745033312605,-0.001931824439968344
528.15725077352113,-0.0019446573957415719
528.2070512139162,-0.0019315502496885543
528.25685165431128,-0.0018897793943762557
528.30665209470635,-0.0018166212223716476
528.35645253510143,-0.0017093521262416869
528.4062529754965,-0.0015652484985533425
528.45605341589169,-0.0013815867318731194
528.50585385628676,-0.0011556432187688052
528.55565429668184,-0.00088469435180700421
528.60545473707691,-0.00056601652355468368
528.65525517747199,-0.00019688612657879647
528.70505561786706,0.00022542044655366801
528.75485605826213,0.00070362680327577516
528.80465649865732,0.0012404565510218514
528.8544569390524,0.0018370862186892867
528.90425737944747,0.0024870404369606324
528.95405781984255,0.0031814823474608503
529.00385826023762,0.0039115744148885837
529.0536587006327,0.0046684791039425123
529.10345914102777,0.0054433588793211677
529.15325958142284,0.0062273762057232385
529.20306002181803,0.0070116935478490988
529.25286046221311,0.0077874733703939122
529.30266090260818,0.0085458781380579885
529.35246134300326,0.0092780703155399546
529.40226178339833,0.0099752123675385437
529.4520622237934,0.010628466758752177
529.50186266418848,0.011228995953879732
529.55166310458355,0.011767962417619793
529.60146354497874,0.012236528614671822
529.65126398537382,0.012625857009732386
529.70106442576889,0.012927110067501295
529.75086486616397,0.013131450252677165
529.80066530655904,0.013230068688404173
529.85046574695411,0.01321993667237909
529.90026618734919,0.013110779692347835
529.95006662774426,0.012914027144798576
529.99986706813945,0.01264110842621825
530.04966750853453,0.012303452933096018
530.0994679489296,0.011912490061918997
530.14926838932467,0.011479649209175059
530.19906882971975,0.01101635977135214
530.24886927011482,0.010534051144937703
530.2986697105099,0.010044152726419857
530.34847015090497,0.0095580939122863022
530.39827059130016,0.0090873040990240364
530.44807103169524,0.008638735836802797
530.49787147209031,0.0081987059318499363
530.54767191248538,0.0077475893394203322
530.59747235288046,0.0072657604701753045
530.64727279327553,0.006733593734777105
530.69707323367061,0.0061314635438872844
530.74687367406568,0.0054397443081677455
530.79667411446087,0.0046388104382782862
530.84647455485594,0.0037090363448843157
530.89627499525102,0.002630796438646334
530.94607543564609,0.0013844651302261262
530.99587587604117,-4.9583169714873695e-05
531.04567631643624,-0.0016774175401705067
531.09547675683132,-0.0034498184143980999
531.14527719722651,-0.0053034732281511945
531.19507763762158,-0.0071750694134283532
531.24487807801665,-0.0090012944022408881
531.29467851841173,-0.010718835626596016
531.3444789588068,-0.01226438051850084
531.39427939920188,-0.013574616509963392
531.44407983959695,-0.014586231032990192
531.49388027999203,-0.015235911519589043
531.54368072038721,-0.015460345401766926
531.59348116078229,-0.015196220543428557
531.64328160117736,-0.014494418388841556
531.69308204157244,-0.013545889191238168
531.74288248196751,-0.012409407157371795
531.79268292236259,-0.011140150151020168
531.84248336275766,-0.0097932960359608419
531.89228380315274,-0.0084240226759713672
531.94208424354792,-0.0070875079348267263
531.991884683943,-0.0058389296763104387
532.04168512433807,-0.004724168961703165
532.09148556473315,-0.0037461791967789188
532.14128600512822,-0.0028955319158141656
532.1910864455233,-0.0021627974779992215
532.24088688591837,-0.0015385462425241696
532.29068732631345,-0.0010133485685796769
532.34048776670863,-0.00057777481535500744
532.39028820710371,-0.00022239534204252453
532.44008864749878,6.2219492168332532e-05
532.48988908789386,0.00028549932808742261
532.53968952828893,0.00045687380652413681
532.58948996868401,0.00058577256828827552
532.63929040907908,0.00068162525418940525
532.68909084947416,0.00075386150503738484
532.73889128986934,0.00081191096164166397
532.78869173026442,0.00086520326481180914
532.83849217065949,0.00092316805535744523
532.88829261105457,0.00099523497408825559
532.93809305144964,0.0010908336618140994
532.98789349184472,0.0012193937593441338
533.03769393223979,0.001390344907488627
533.08749437263486,0.0016131167470566775
533.13729481303005,0.0018971389188589044
533.18709525342513,0.0022518410637037047
533.2368956938202,0.0026817372783028955
533.28669613421528,0.0031651955826597373
533.33649657461035,0.0036719249409059109
533.38629701500543,0.0041716287271181133
533.4360974554005,0.004634010315372924
533.48589789579557,0.0050287730797468075
533.53569833619076,0.0053256203943168098
533.58549877658584,0.005494255633157758
533.63529921698091,0.0055043821703478699
533.68509965737599,0.0053257033799626718
533.73490009777106,0.0049279226360787447
533.78470053816613,0.0042807433127732527
533.83450097856121,0.0033529903820810236
533.88430141895628,0.0021649001121574018
533.93410185935147,0.0007892606061517582
533.98390229974655,-0.00069979568190535848
534.03370274014162,-0.0022281362979925212
534.0835031805367,-0.0037216287880847947
534.13330362093177,-0.0051061406981582954
534.18310406132684,-0.0063075395741876211
534.23290450172192,-0.0072516929621494718
534.28270494211711,-0.0078644684080193816
534.33250538251218,-0.008071733457770543
534.38230582290726,-0.0077993556573798936
534.43210626330233,-0.0069794567980073548
534.4819067036974,-0.0056443681205931304
534.53170714409248,-0.0039070989126732585
534.58150758448755,-0.0018829487826082132
534.63130802488263,0.00031278266124094861
534.68110846527782,0.002564795810517613
534.73090890567289,0.0047577910568504305
534.78070934606797,0.0067764687918825542
534.83050978646304,0.0085055294072532775
534.88031022685811,0.0098296732946015417
534.93011066725319,0.010633600845565704
534.97991110764826,0.010802012451784708
535.02971154804334,0.010240696228368226
535.07951198843853,0.0090090001033587015
535.1293124288336,0.007234211356894971
535.17911286922867,0.0050439191895817314
535.22891330962375,0.0025657128020262557
535.27871375001882,-7.2818605165119222e-05
535.3285141904139,-0.0027440858313851216
535.37831463080897,-0.005320499676026596
535.42811507120405,-0.0076744709384830891
535.47791551159924,-0.009678410418151772
535.52771595199431,-0.01120472891441637
535.57751639238938,-0.012125837226674284
535.62731683278446,-0.012319419549244284
535.67711727317953,-0.011787594460248839
535.72691771357461,-0.010658688379361788
535.77671815396968,-0.0090666558350003985
535.82651859436476,-0.0071454513555787875
535.87631903475994,-0.0050290294695091997
535.92611947515502,-0.0028513447052161581
535.97591991555009,-0.00074635159111097128
536.02572035594517,0.0011519953443900235
536.07552079634024,0.0027097415728717755
536.12532123673532,0.0037929325659179481
536.17512167713039,0.0042676137951134898
536.22492211752547,0.004005598964355166
536.27472255792065,0.0030239624850848311
536.32452299831573,0.0014923993933435894
536.3743234387108,-0.00041215393179490779
536.42412387910588,-0.0025127611112540863
536.47392431950095,-0.0046324857659594768
536.52372475989603,-0.0065943915168336859
536.5735252002911,-0.0082215419848025943
536.62332564068618,-0.0093450929139465011
536.67312608108136,-0.0099229892148673844
536.72292652147644,-0.010025550843407019
536.77272696187151,-0.0097283164205851091
536.82252740226659,-0.0091068245674201884
536.87232784266166,-0.0082366139049298587
536.92212828305674,-0.0071932230541327706
536.97192872345181,-0.0060521906360465243
537.02172916384689,-0.0048890552716900045
537.07152960424207,-0.0037793555820773029
537.12133004463715,-0.0027986301882338546
537.17113048503222,-0.0020224177111738671
537.2209309254273,-0.0015258564432180917
537.27073136582237,-0.0013427929404898329
537.32053180621745,-0.0014304621045409503
537.37033224661252,-0.0017377769130398348
537.42013268700771,-0.002213650343656514
537.46993312740278,-0.0028069953740558692
537.51973356779786,-0.0034667249819081629
537.56953400819293,-0.0041417521448807318
537.61933444858801,-0.0047809898406424344
537.66913488898308,-0.0053333510468615451
537.71893532937816,-0.0057477487412056338
537.76873576977323,-0.0059730959013434429
537.81853621016842,-0.0059584629536369935
537.86833665056349,-0.0056866801830095653
537.91813709095857,-0.0052160884171722714
537.96793753135364,-0.0046152747303670281
538.01773797174872,-0.0039528261968342299
538.06753841214379,-0.0032973298908150904
538.11733885253886,-0.0027173728865508241
538.16713929293394,-0.0022815422582827616
538.21693973332913,-0.0020576579632586075
538.2667401737242,-0.002060730229158723
538.31654061411928,-0.0022197558537536055
538.36634105451435,-0.002455824322947216
538.41614149490943,-0.0026886574254742024
538.4659419353045,-0.0028226030497249519
538.51574237569957,-0.0028466307633270029
538.56554281609465,-0.002779663712033672
538.61534325648984,-0.0026406250415970472
538.66514369688491,-0.0024484378977713225
538.71494413727999,-0.0022220254263092877
538.76474457767506,-0.0019803107729638495
538.81454501807013,-0.0017421847203557314
538.86434545846521,-0.0015207411080534799
538.91414589886028,-0.0013166271847983937
538.96394633925536,-0.0011288790962101683
539.01374677965055,-0.00095653298790680363
539.06354722004562,-0.0007986250055089895
539.1133476604407,-0.00065419129463495959
539.16314810083577,-0.00052226800090417571
539.21294854123084,-0.00040189126993580741
539.26274898162592,-0.00029209724734873156
539.31254942202099,-0.00019192207876235154
539.36234986241607,-0.00010040190979560278
539.41215030281126,-1.657288606765471e-05
539.46195074320633,6.0528846802089353e-05
539.5117511836014,0.00013186714319457697
539.56155162399648,0.0001984058574907557
539.61135206439155,0.00026110884407133921
539.66115250478663,0.000320939957317275
539.7109529451817,0.00037886305160933519
539.76075338557689,0.00043584198132852589
539.81055382597197,0.00049284060085556065
539.86035426636704,0.00055082276457127019
539.91015470676211,0.00061075232685654345
539.95995514715719,0.00067359314209221115
540.00975558755226,0.00074030452331415384
540.05955602794734,0.00081139774471199449
540.10935646834241,0.00088656376724919044
540.15915690873749,0.00096540590611275028
540.20895734913267,0.0010475274764898579
540.25875778952775,0.0011325317935672295
540.30855822992282,0.0012200221725319907
540.3583586703179,0.0013096019285709745
540.40815911071297,0.0014008743768713647
540.45795955110805,0.0014934428326200532
540.50775999150312,0.0015869106110041069
540.55756043189831,0.0016808810272106512
540.60736087229338,0.0017749573964261686
540.65716131268846,0.0018687430338379012
540.70696175308353,0.0019618412546329161
540.75676219347861,0.0020538553739982805
540.80656263387368,0.0021443887071207106
540.85636307426876,0.002233044569187507
540.90616351466383,0.0023194262753853862
540.95596395505902,0.0024031371409015323
541.00576439545409,0.0024837838852770581
541.05556483584917,0.0025612644190277424
541.10536527624424,0.0026359866816926835
541.15516571663932,0.0027084101428681237
541.20496615703439,0.0027789942721499535
541.25476659742947,0.0028481985391346498
541.30456703782454,0.0029164824134183379
541.35436747821973,0.0029843053645972595
541.4041679186148,0.0030521268622671896
541.45396835900988,0.0031204063760248381
541.50376879940495,0.0031896033754657454
541.55356923980003,0.0032601773301867381
541.6033696801951,0.0033325877097837085
541.65317012059018,0.0034072939838526647
541.70297056098525,0.0034847556219901993
541.75277100138044,0.0035654320937920868
541.80257144177551,0.0036497828688546873
541.85237188217059,0.0037382674167740076
541.90217232256566,0.0038313452071466422
541.95197276296074,0.0039294757095681308
542.00177320335581,0.0040331183936350668
542.05157364375088,0.0041427327289434591
542.10137408414596,0.004258778185089432
542.15117452454115,0.0043817142316696957
542.20097496493622,0.0045120003382789729
542.2507754053313,0.0046487701378385565
542.30057584572637,0.0047858675257216026
542.35037628612145,0.0049158173564758881
542.40017672651652,0.0050311444846484884
542.44997716691159,0.0051243737647863625
542.49977760730667,0.0051880300514375224
542.54957804770186,0.005214638199148575
542.59937848809693,0.0051967230624674144
542.64917892849201,0.0051268094959410005
542.69897936888708,0.0049974223541166419
542.74877980928215,0.0048010864915421156
542.79858024967723,0.004530326762763914
542.8483806900723,0.0041805326583625301
542.89818113046749,0.0037631172882793013
542.94798157086257,0.0032950622834954659
542.99778201125764,0.0027933548491301968
543.04758245165272,0.0022749821903027823
543.09738289204779,0.0017569315121325124
543.14718333244286,0.0012561900197386754
543.19698377283794,0.00078974491824079481
543.24678421323301,0.00037458341275792528
543.2965846536282,2.7692708409940807e-05
543.34638509402328,-0.00023393998968363565
543.39618553441835,-0.00039332747640304723
543.44598597481342,-0.00046253371928052598
543.4957864152085,-0.00048757222426287566
543.54558685560357,-0.0004773443047924062
543.59538729599865,-0.00043992969461205709
543.64518773639372,-0.00038340812746383198
543.69498817678891,-0.00031585933709113814
543.74478861718399,-0.00024536305723644715
543.79458905757906,-0.00017999902164141191
543.84438949797413,-0.00012784696404979047
