energy,intensity
629.00933975839894,-0.0010268291856069967
629.03832587371608,-0.00098496942757393333
629.06731198903333,-0.00094384979685376231
629.09629810435047,-0.000903464902775055
629.12528421966761,-0.00086380935466589712
629.15427033498486,-0.00082487776185438558
629.183256450302,-0.00078666473366907413
629.21224256561914,-0.0007491648794380575
629.24122868093639,-0.00071237280848944072
629.27021479625353,-0.00067628313015176108
629.29920091157078,-0.00064089045375298383
629.32818702688792,-0.0006061893886216348
629.35717314220506,-0.00057217454408582267
629.38615925752231,-0.00053884052947366571
629.41514537283945,-0.00050618195411367432
629.44413148815659,-0.00047419342733396469
629.47311760347384,-0.00044286955846266384
629.50210371879098,-0.00041220495682826554
629.53108983410812,-0.00038219423175889444
629.56007594942537,-0.00035283199258268484
629.58906206474251,-0.00032411284862811536
629.61804818005965,-0.00029603140922331803
629.6470342953769,-0.00026858228369643517
629.67602041069404,-0.00024176008137593007
629.70500652601118,-0.00021555941158994251
629.73399264132843,-0.00018997488366662138
629.76297875664557,-0.00016500110693441625
629.7919648719627,-0.00014063269072147404
629.82095098727996,-0.00011686424435595035
629.8499371025971,-9.3690377166280527e-05
629.87892321791435,-7.1105698480531529e-05
629.90790933323149,-4.910481762712806e-05
629.93689544854863,-2.7682343934229828e-05
629.96588156386588,-6.8328867300035188e-06
629.99486767918302,1.3448944657138074e-05
630.02385379450016,3.3168540899029856e-05
630.05283990981741,5.2331292667497365e-05
630.08182602513455,7.094259063414237e-05
630.11081214045169,8.9007825470791951e-05
630.13979825576894,0.00010653238784926565
630.16878437108608,0.00012352166844117757
630.19777048640321,0.00013998105791834957
630.22675660172047,0.0001559159469525935
630.25574271703761,0.00017133172621553751
630.28472883235474,0.00018623378637899591
630.313714947672,0.00020062751811477552
630.34270106298914,0.00021451831209451556
630.37168717830639,0.00022791155899007658
630.40067329362353,0.0002408126494731048
630.42965940894067,0.00025322697421540513
630.45864552425792,0.00026515992388877592
630.48763163957506,0.00027661688916487436
630.5166177548922,0.00028760326071549996
630.54560387020945,0.00029812442921244486
630.57458998552659,0.00030818578532737766
630.60357610084372,0.00031779271973209273
630.63256221616098,0.00032695062309837667
630.66154833147812,0.00033566488609790886
630.69053444679525,0.00034394089940247783
630.71952056211251,0.00035178405368386508
630.74850667742965,0.00035919973961376058
630.77749279274678,0.00036619334786394767
630.80647890806404,0.00037277026910620338
630.83546502338118,0.00037893589401222688
630.86445113869831,0.00038469561325379643
630.89343725401557,0.00039005481750268466
630.92242336933271,0.00039501889743060066
630.95140948464996,0.00039959324370933484
630.9803955999671,0.00040378324701060311
631.00938171528423,0.00040759429800617551
631.03836783060149,0.00041103178736781701
631.06735394591863,0.00041410110576725156
631.09634006123576,0.00041680764387624501
631.12532617655302,0.00041915679236655828
631.15431229187016,0.0004211539419099236
631.18329840718729,0.00042280448317810266
631.21228452250455,0.00042411380684285208
631.24127063782169,0.00042508730357591266
631.27025675313882,0.00042573036404904219
631.29924286845608,0.00042604837893399209
631.32822898377322,0.00042604673890251233
631.35721509909035,0.00042573083462635591
631.38620121440761,0.00042510605677727171
631.41518732972474,0.00042417779602701614
631.444173445042,0.00042295144304733311
631.47315956035914,0.0004214323885099844
631.50214567567627,0.00041962602308671698
631.53113179099353,0.00041753773744927401
631.56011790631067,0.00041517292226942321
631.5891040216278,0.00041253696821890872
631.61809013694506,0.00040963526596947013
631.6470762522622,0.00040647320619288153
631.67606236757933,0.00040305617956088488
631.70504848289659,0.00039938957674521522
631.73403459821373,0.00039547878841765408
631.76302071353086,0.00039132920524993835
631.79200682884812,0.00038694621791380272
631.82099294416525,0.0003823352170810326
631.84997905948239,0.00037750159342336338
631.87896517479965,0.00037245073761252594
631.90795129011678,0.00036718804032031166
631.93693740543404,0.00036171889221843056
631.96592352075118,0.00035604868397867825
631.99490963606831,0.00035018280627278404
632.02389575138557,0.00034412664977247589
632.05288186670271,0.00033788560514955314
632.08186798201984,0.00033146506307574328
632.1108540973371,0.00032487041422277251
632.13984021265424,0.00031810704926244361
632.16882632797137,0.00031118035886648306
632.19781244328863,0.0003040957337066145
632.22679855860576,0.00029685856445464432
632.2557846739229,0.00028947424178229738
632.28477078924016,0.00028194815636129492
632.31375690455729,0.00027428569886344778
632.34274301987443,0.00026649225996047807
632.37172913519169,0.00025857323032410718
632.40071525050882,0.0002505340006261472
632.42970136582596,0.00024237996153832051
632.45868748114322,0.00023411650373234442
632.48767359646035,0.00022574901788003678
632.51665971177761,0.00021728289465308296
632.54564582709475,0.0002087235247233012
632.57463194241188,0.00020007629876240944
632.60361805772914,0.00019134660744212566
632.63260417304627,0.00018253984143426971
632.66159028836341,0.00017366139141055881
632.69057640368067,0.00016471664804270964
632.7195625189978,0.00015571100200254388
632.74854863431494,0.00014664984396177804
632.7775347496322,0.0001375385645921284
632.80652086494933,0.00012838255456541732
632.83550698026647,0.00011918720455336121
632.86449309558373,0.00010995790522767531
632.89347921090086,0.0001007000472601833
632.922465326218,9.1419021322601264e-05
632.95145144153526,8.2120218086643504e-05
632.98043755685239,7.2809028224135282e-05
633.00942367216953,6.3490842406791436e-05
633.03840978748678,5.4171051306327073e-05
633.06739590280392,4.4855045594566808e-05
633.09638201812118,3.5548215943189104e-05
633.12536813343831,2.6255953024019007e-05
633.15435424875545,1.6983647508771139e-05
633.18334036407271,7.7366900691608256e-06
633.21232647938984,-1.4795286229874285e-06
633.24131259470698,-1.065961789595846e-05
633.27029871002424,-1.9798187078036834e-05
633.29928482534137,-2.8889845497398101e-05
633.32827094065851,-3.7929202482328073e-05
633.35725705597577,-4.6910867361109744e-05
633.3862431712929,-5.582944946192018e-05
633.41522928661004,-6.4679558113044707e-05
633.44421540192729,-7.3455802642764692e-05
633.47320151724443,-8.21527923792604e-05
633.50218763256157,-9.0765136650814392e-05
633.53117374787882,-9.9287444785708901e-05
633.56015986319596,-0.0001077143261121249
633.58914597851322,-0.0001160403899583766
633.61813209383035,-0.00012426024565264819
633.64711820914749,-0.00013236850252321993
633.67610432446475,-0.00014035976989837184
633.70509043978188,-0.00014822865710628977
633.73407655509902,-0.00015596977347525292
633.76306267041628,-0.00016357772833353978
633.79204878573341,-0.00017104713100933914
633.82103490105055,-0.00017837259083092942
633.8500210163678,-0.00018554871712658696
633.87900713168494,-0.00019257011922450373
633.90799324700208,-0.00019943140645295682
633.93697936231933,-0.00020612718814022048
633.96596547763647,-0.00021265207361449039
633.99495159295361,-0.00021900067220404168
634.02393770827086,-0.00022516759323714633
634.052923823588,-0.00023114744604200489
634.08190993890526,-0.00023693483994691243
634.11089605422239,-0.00024252438428007134
634.13988216953953,-0.00024791068836975405
634.16886828485679,-0.00025308836154422853
634.19785440017392,-0.00025805201313170204
634.22684051549106,-0.00026279625246044462
634.25582663080831,-0.00026731568885872154
634.28481274612545,-0.00027160493165474548
634.31379886144259,-0.00027565859017678312
634.34278497675984,-0.00027947127375309744
634.37177109207698,-0.00028303759171190721
634.40075720739412,-0.00028635215338147606
634.42974332271137,-0.00028940956809006351
634.45872943802851,-0.0002922044451658945
634.48771555334565,-0.00029473139393722963
634.5167016686629,-0.00029698502373232583
634.54568778398004,-0.00029895994387941387
634.57467389929718,-0.00030065076370675123
634.60366001461443,-0.00030205209254259124
634.63264612993157,-0.00030315853971517163
634.66163224524882,-0.0003039647145527491
634.69061836056596,-0.00030446522638356572
634.7196044758831,-0.00030465468453587429
634.74859059120035,-0.00030452769833792164
634.77757670651749,-0.00030407887711795655
634.80656282183463,-0.00030330283020422858
634.83554893715188,-0.00030219416692498099
634.86453505246902,-0.00030074749660847036
634.89352116778616,-0.00029895742858294147
634.92250728310341,-0.000296818572176634
634.95149339842055,-0.00029432553671781278
634.98047951373769,-0.00029147293153471881
635.00946562905494,-0.00028825536595558708
635.03845174437208,-0.00028466744930869155
635.06743785968922,-0.00028070379092226755
635.09642397500647,-0.00027635900012454697
635.12541009032361,-0.00027162768624381197
635.15439620564086,-0.00026650445860827341
635.183382320958,-0.0002609839265462204
635.21236843627514,-0.00025506069938588155
635.24135455159239,-0.00024872938645548008
635.27034066690953,-0.00024198459708331334
635.29932678222667,-0.00023482094059760626
635.32831289754392,-0.00022723302632657685
635.35729901286106,-0.00021921546359853308
635.3862851281782,-0.0002107628617416936
635.41527124349545,-0.00020186983008427142
635.44425735881259,-0.00019253097795458537
635.47324347412973,-0.0001827409146808491
635.50222958944698,-0.00017249424959127021
635.53121570476412,-0.00016178559201417749
635.56020182008126,-0.00015060955127777984
635.58918793539851,-0.00013896073671027919
635.61817405071565,-0.00012683375764001542
635.64716016603279,-0.00011422322339519242
635.67614628135004,-0.00010112374330400521
635.70513239666718,-8.7529926694806214e-05
635.73411851198443,-7.3436382895736459e-05
635.76310462730157,-5.8837721235155318e-05
635.79209074261871,-4.3728551041256067e-05
635.82107685793596,-2.8103481642226128e-05
635.8500629732531,-1.1957122366435284e-05
635.87904908857024,4.7159174579277426e-06
635.90803520388749,2.1921028502683553e-05
635.93702131920463,3.9663601439448269e-05
635.96600743452177,5.7949026940039674e-05
635.99499354983902,7.6782695676285307e-05
636.02397966515616,9.6169998319787847e-05
636.0529657804733,0.00011611632554237245
636.08195189579055,0.00013662706801587207
636.11093801110769,0.00015770761641187791
636.13992412642483,0.00017936336140221987
636.16891024174208,0.00020159969365873896
636.19789635705922,0.00022442200385301096
636.22688247237647,0.00024783568265696857
636.25586858769361,0.00027184612074217782
636.28485470301075,0.00029645870878048167
636.313840818328,0.00032167883744373214
636.34282693364514,0.00034751189740348225
636.37181304896228,0.00037396327933158276
636.40079916427953,0.00040103837389989135
636.42978527959667,0.00042874257177994714
636.45877139491381,0.0004570812636436074
636.48775751023106,0.00048605984016273848
636.5167436255482,0.00051568369200886413
636.54572974086534,0.00054595820985384918
636.57471585618259,0.00057688878436956757
636.60370197149973,0.0006084808062275281
636.63268808681687,0.00064073966609960275
636.66167420213412,0.0006736707546576722
636.69066031745126,0.00070727946257323135
636.7196464327684,0.00074157118051815956
636.74863254808565,0.00077655129916434596
636.77761866340279,0.00081222520918326747
636.80660477872004,0.0008485983012469576
636.83559089403718,0.00088567596602688115
636.86457700935432,0.00092346359419493134
636.89356312467157,0.00096196657642301162
636.92254923998871,0.0010011903033825724
636.95153535530585,0.0010411401657455144
636.9805214706231,0.0010818215541837503
637.00950758594024,0.0011232398593687125
637.03849370125738,0.0011654004719723111
637.06747981657463,0.0012083087826664667
637.09646593189177,0.001251970182122595
637.12545204720891,0.0012963900610126148
637.15443816252616,0.001341573810008455
637.1834242778433,0.001387526819781514
637.21241039316044,0.0014342544810037187
637.24139650847769,0.0014817621843470085
637.27038262379483,0.0015300553204827619
637.29936873911208,0.0015791392800831102
637.32835485442922,0.0016290194538194198
637.35734096974636,0.0016797012323636333
637.38632708506361,0.0017311900063877049
637.41531320038075,0.0017835368487173259
637.44429931569789,0.0018371713429531796
637.47328543101514,0.001892710158183002
637.50227154633228,0.0019507712912096812
637.53125766164942,0.0020119727388367551
637.56024377696667,0.0020769324978678083
637.58922989228381,0.0021462685651056578
637.61821600760095,0.0022205989373538714
637.6472021229182,0.0023005416114160993
637.67618823823534,0.0023867145840950365
637.70517435355248,0.0024797358521943102
637.73416046886973,0.0025802234125176524
637.76314658418687,0.0026887952618675987
637.79213269950401,0.0028060693970478516
637.82111881482126,0.0029326638148622504
637.8501049301384,0.0030691965121131264
637.87909104545565,0.0032162854856048785
637.90807716077279,0.0033745487321396764
637.93706327608993,0.0035446042485214008
637.96604939140718,0.0037270700315541142
637.99503550672432,0.00392256407803971
638.02402162204146,0.0041317043847822026
638.05300773735871,0.00435510894858582
638.08199385267585,0.0045933957662521339
638.11097996799299,0.004847182834585316
638.13996608331024,0.0051170881503897776
638.16895219862738,0.0054037297104667283
638.19793831394452,0.0057077255116205171
638.22692442926177,0.0060296935506557667
638.25591054457891,0.0063702518243732758
638.28489665989605,0.0067300183295775935
638.3138827752133,0.007109794255447696
638.34286889053044,0.0075125731786552857
638.37185500584769,0.0079427935100891116
638.40084112116483,0.0084049191441454944
638.42982723648197,0.0089034139752257567
638.45881335179922,0.0094427418977317788
638.48779946711636,0.010027366806059031
638.5167855824335,0.01066175259460924
638.54577169775075,0.011350363157784893
638.57475781306789,0.012097662389980298
638.60374392838503,0.012908114185597725
638.63273004370228,0.013786182439040447
638.66171615901942,0.014736331044701276
638.69070227433656,0.015763023896983201
638.71968838965381,0.016870724890290425
638.74867450497095,0.018063897919013954
638.77766062028809,0.019347006877557655
638.80664673560534,0.02072451566032681
638.83563285092248,0.022200888161710314
638.86461896623973,0.023780588276119473
638.89360508155687,0.02546807989794159
638.92259119687401,0.027267826921582344
638.95157731219126,0.029184293241449184
638.9805634275084,0.031221942751926753
639.00954954282554,0.033385239347422033
639.03853565814279,0.03567864692234398
639.06752177345993,0.038106629371074292
639.09650788877707,0.04067365058802138
639.12549400409432,0.043384174467595862
639.15448011941146,0.046242664904176174
639.1834662347286,0.049253585792172351
639.21245235004585,0.052421807325189612
639.24143846536299,0.055762164953685543
639.27042458068013,0.059299816731109026
639.29941069599738,0.063060398507127816
639.32839681131452,0.067069546131365163
639.35738292663166,0.071352895453487858
639.38636904194891,0.07593608232316712
639.41535515726605,0.080844742590019669
639.4443412725833,0.086104512103736847
639.47332738790044,0.091741026713929974
639.50231350321758,0.097779922270271658
639.53129961853483,0.10423626751702039
639.56028573385197,0.11106446234701972
639.58927184916911,0.11819729581102428
639.61825796448636,0.12556753055816755
639.6472440798035,0.1331079292374957
639.67623019512064,0.14075125449814141
639.70521631043789,0.14843026898923886
639.73420242575503,0.15608580880715223
639.76318854107217,0.16372466544583605
639.79217465638942,0.17138584490313932
639.82116077170656,0.1791085714927094
639.8501468870237,0.18693206952828342
639.87913300234095,0.19489556332360036
639.90811911765809,0.20303827719230516
639.93710523297523,0.21139943544813608
639.96609134829248,0.22001826240483485
639.99507746360962,0.22893398237604112
640.02406357892687,0.23818581967553262
640.05304969424401,0.24781299861694417
640.08203580956115,0.25785474351401871
640.1110219248784,0.26833922171111968
640.14000804019554,0.27906462483071692
640.16899415551268,0.28961192681991133
640.19798027082993,0.29955359887149752
640.22696638614707,0.30848338773186057
640.25595250146421,0.316184876854604
640.28493861678146,0.32254140676974602
640.3139247320986,0.32744025121513076
640.34291084741574,0.33088667639865021
640.37189696273299,0.33303896361047147
640.40088307805013,0.33406559415308407
640.42986919336727,0.33413504932900506
640.45885530868452,0.33341581044073609
640.48784142400166,0.33207635879078928
640.51682753931891,0.33028573724857507
640.54581365463605,0.32822330878282552
640.57479976995319,0.32607749207154146
640.60378588527044,0.32403701312674438
640.63277200058758,0.32229059796047999
640.66175811590472,0.32102697258476931
640.69074423122197,0.32043486301164076
640.71973034653911,0.32069863331025367
640.74871646185625,0.32185326521527963
640.7777025771735,0.32375062024837914
640.80668869249064,0.32623136258045998
640.83567480780778,0.32913615638245131
640.86466092312503,0.33230566582528892
640.89364703844217,0.33558055507987028
640.92263315375931,0.33880573858089963
640.95161926907656,0.34189946005864003
640.9806053843937,0.34484184490871644
641.00959149971095,0.34761495856702268
641.03857761502809,0.3502008664694074
641.06756373034523,0.35258163405175241
641.09654984566248,0.3547393267499363
641.12553596097962,0.35665600999981251
641.15452207629676,0.35831374923726084
641.18350819161401,0.35969460989815649
641.21249430693115,0.36079527034080172
641.24148042224829,0.36172216444758676
641.27046653756554,0.36263161484004525
641.29945265288268,0.36368019476999308
641.32843876819982,0.36502447748925565
641.35742488351707,0.36682103624966333
641.38641099883421,0.36922644430302493
641.41539711415135,0.3723965517568944
641.4443832294686,0.37636112702332158
641.47336934478574,0.38088095540994671
641.50235546010288,0.38568226318663584
641.53134157542013,0.39049127662326016
641.56032769073727,0.39503422198963317
641.58931380605452,0.39903732555564037
641.61829992137166,0.40225795074776954
641.6472860366888,0.40469316972727587
641.67627215200605,0.40645136182477593
641.70525826732319,0.40764151985848296
641.73424438264033,0.40837263664663237
641.76323049795758,0.40875370500745212
641.79221661327472,0.4088937177591665
641.82120272859186,0.40888755672022764
641.85018884390911,0.40875740763947915
641.87917495922625,0.40850211302838918
641.90816107454339,0.4081205045146209
641.93714718986064,0.40761141372583487
641.96613330517778,0.4069736722896985
641.99511942049492,0.40620611183387317
642.02410553581217,0.40530756398601819
642.05309165112931,0.40427686037380373
642.08207776644656,0.40311283262488479
642.1110638817637,0.40181431236693371
642.14004999708084,0.40037662187610829
642.16903611239809,0.39877973249551746
642.19802222771523,0.39699941929667654
642.22700834303237,0.39501145724937314
642.25599445834962,0.39279162132339202
642.28498057366676,0.39031568648854365
642.3139666889839,0.3875594348287793
642.34295280430115,0.38451105013629377
642.37193891961829,0.38119660218039725
642.40092503493543,0.37764937002643101
642.42991115025268,0.37390263273973295
642.45889726556982,0.36998966938568523
642.48788338088696,0.36594375902962639
642.51686949620421,0.36179818073689285
642.54585561152135,0.35758621357287002
642.57484172683849,0.35334113660289457
642.60382784215574,0.34909622889230285
642.63281395747288,0.34488476950648089
642.66180007279013,0.34074003751074877
642.69078618810727,0.33669531197049207
642.71977230342441,0.33278387122786873
642.74875841874166,0.32903055031762019
642.7777445340588,0.32543076463059678
642.80673064937594,0.32197352585882416
642.83571676469319,0.31864784569433008
642.86470288001033,0.31544273582918103
642.89368899532747,0.31234720795540438
642.92267511064472,0.30935027376502899
642.95166122596186,0.30644094495011898
642.980647341279,0.30360823320270286
643.00963345659625,0.30084115021481045
643.03861957191339,0.29812870767850408
643.06760568723053,0.29545991728581317
643.09659180254778,0.29282379072876807
