energy,intensity
444.99817677254049,-0.0050606929006745335
445.01814455937176,-0.0050035529703885027
445.03811234620298,-0.0049467609886299077
445.05808013303425,-0.0048903159753062283
445.07804791986553,-0.0048342169503254309
445.09801570669674,-0.0047784629335954803
445.11798349352802,-0.0047230529450238623
445.13795128035929,-0.0046679860045185425
445.15791906719051,-0.0046132611319874796
445.17788685402178,-0.0045588773473381672
445.19785464085305,-0.0045048336704785657
445.21782242768433,-0.0044511291213164828
445.23779021451554,-0.0043977627197598701
445.25775800134682,-0.0043447334857162311
445.27772578817809,-0.0042920404390935224
445.2976935750093,-0.0042396825997996976
445.31766136184058,-0.0041876589877422633
445.33762914867185,-0.0041359686228291739
445.35759693550307,-0.0040846105249683811
445.37756472233434,-0.0040335837140673949
445.39753250916561,-0.0039828872100341655
445.41750029599683,-0.003932520032776647
445.4374680828281,-0.0038824812022023496
445.45743586965938,-0.0038327697382192268
445.47740365649059,-0.0037833846607352234
445.49737144332187,-0.0037343249896578598
445.51733923015314,-0.0036855897448950844
445.53730701698441,-0.0036371779463547022
445.55727480381563,-0.0035890886139446523
445.5772425906469,-0.0035413207675724671
445.59721037747818,-0.0034938734271460895
445.61717816430939,-0.0034467456125734566
445.63714595114067,-0.0033999363437621031
445.65711373797194,-0.0033534446406199726
445.67708152480316,-0.0033072695230549976
445.69704931163443,-0.0032614100109747226
445.7170170984657,-0.003215865124287082
445.73698488529692,-0.0031706338829000083
445.75695267212819,-0.0031257153067210507
445.77692045895947,-0.0030811084156581428
445.79688824579068,-0.0030368122296192141
445.81685603262196,-0.0029928257685118182
445.83682381945323,-0.0029491480522438863
445.8567916062845,-0.0029057781007232214
445.87675939311572,-0.0028627149338577517
445.89672717994699,-0.0028199575715550378
445.91669496677827,-0.0027775050337230075
445.93666275360948,-0.002735356340269582
445.95663054044076,-0.0026935105111023294
445.97659832727203,-0.0026519665661291743
445.99656611410325,-0.0026107235252580373
446.01653390093452,-0.0025697804083964883
446.03650168776579,-0.0025291362354524505
446.05646947459701,-0.0024887900263338429
446.07643726142828,-0.0024487408009482405
446.09640504825956,-0.0024089875792035645
446.11637283509077,-0.0023695293810077306
446.13634062192205,-0.0023303652262683188
446.15630840875332,-0.0022914941348932461
446.17627619558459,-0.0022529151267903173
446.19624398241581,-0.0022146272218674474
446.21621176924708,-0.002176629440032221
446.23617955607835,-0.0021389208011925532
446.25614734290957,-0.0021015003252563566
446.27611512974084,-0.0020643670321312192
446.29608291657212,-0.0020275199417250562
446.31605070340333,-0.0019909580739457746
446.33601849023461,-0.0019546804487009699
446.35598627706588,-0.0019186860858985521
446.3759540638971,-0.0018829740054464295
446.39592185072837,-0.0018475432272522004
446.41588963755964,-0.001812392771223772
446.43585742439086,-0.0017775216572690495
446.45582521122213,-0.0017429289052956385
446.47579299805341,-0.0017086135352114421
446.49576078488468,-0.0016745745669242676
446.5157285717159,-0.0016408110203420131
446.53569635854717,-0.001607321915372292
446.55566414537844,-0.0015741062719230069
446.57563193220966,-0.0015411631099020537
446.59559971904093,-0.0015084914492170495
446.61556750587221,-0.0014760903097758968
446.63553529270342,-0.001443958711486488
446.6555030795347,-0.0014120956742564438
446.67547086636597,-0.001380500217993665
446.69543865319719,-0.0013491713626060419
446.71540644002846,-0.0013181081280012026
446.73537422685973,-0.0012873095340870408
446.75534201369095,-0.0012567746007714478
446.77530980052222,-0.0012265023479620548
446.7952775873535,-0.0011964917955667531
446.81524537418471,-0.0011667419634934326
446.83521316101599,-0.0011372518716497287
446.85518094784726,-0.0011080205399435301
446.87514873467853,-0.0010790469882826419
446.89511652150975,-0.001050330236574951
446.91508430834102,-0.0010218693047280981
446.9350520951723,-0.00099366321264997065
446.95501988200351,-0.00096571098024845299
446.97498766883479,-0.00093801162743118837
446.99495545566606,-0.00091056417410606343
447.01492324249728,-0.00088336764018096057
447.03489102932855,-0.00085642104556352811
447.05485881615982,-0.00082972341016164888
447.07482660299104,-0.00080327375388320387
447.09479438982231,-0.00077707109663584532
447.11476217665358,-0.00075111445832745519
447.1347299634848,-0.00072540285886591013
447.15469775031607,-0.00069993531815886845
447.17466553714735,-0.00067471085611420971
447.19463332397862,-0.0006497284926397374
447.21460111080984,-0.00062498724764332731
447.23456889764111,-0.00060048614103264185
447.25453668447238,-0.00057622419271555832
447.2745044713036,-0.00055220042259994774
447.29447225813487,-0.00052841385059348002
447.31444004496615,-0.00050486349660402703
447.33440783179736,-0.00048154838053946083
447.35437561862864,-0.00045846752230745217
447.37434340545991,-0.00043561994181587409
447.39431119229113,-0.00041300465897259282
447.4142789791224,-0.00039062069368528651
447.43424676595367,-0.00036846706586182455
447.45421455278489,-0.00034654279541007312
447.47418233961616,-0.00032484690223771233
447.49415012644744,-0.00030337840625261042
447.51411791327871,-0.00028213632736257064
447.53408570010993,-0.00026111968547545686
447.5540534869412,-0.0002403275004989576
447.57402127377247,-0.00021975879234093374
447.59398906060369,-0.00019941258090925098
447.61395684743496,-0.00017928788611159516
447.63392463426624,-0.00015938372785583152
447.65389242109745,-0.00013969912604981972
447.67386020792873,-0.00012023310060125167
447.69382799476,-0.00010098467141799044
447.71379578159122,-8.1952858407893003e-05
447.73376356842249,-6.3136681478656573e-05
447.75373135525376,-4.4535160538139422e-05
447.77369914208498,-2.6147315494199436e-05
447.79366692891625,-7.9721662545365465e-06
447.81363471574753,9.9912672729924086e-06
447.8336025025788,2.7743965180582805e-05
447.85357028941002,4.5286907560379618e-05
447.87353807624129,6.2621074504678044e-05
447.89350586307256,7.9747446105623505e-05
447.91347364990378,9.6667002455363103e-05
447.93344143673505,0.00011338072364618845
447.95340922356633,0.0001298895897702455
447.97337701039754,0.00014619458091968577
447.99334479722881,0.00016229667718679479
448.01331258406009,0.00017819685866372176
448.0332803708913,0.00019389610544261825
448.05324815772258,0.00020939539761576914
448.07321594455385,0.00022469571527532369
448.09318373138507,0.00023979803851343373
448.11315151821634,0.00025470334742238275
448.13311930504761,0.00026941262209432155
448.15308709187889,0.00028392684262144434
448.1730548787101,0.00029824698909590783
448.19302266554138,0.00031237404160998773
448.21299045237265,0.00032630898025583764
448.23295823920387,0.00034005278512561467
448.25292602603514,0.00035360643631159299
448.27289381286641,0.00036697091390592781
448.29286159969763,0.0003801471980007774
448.3128293865289,0.00039313626868841102
448.33279717336018,0.00040593910606098635
448.35276496019139,0.00041855669021066477
448.37273274702267,0.00043099000122971172
448.39270053385394,0.00044324001921028708
448.41266832068516,0.0004553077242445503
448.43263610751643,0.00046719409642476741
448.4526038943477,0.00047890011584309812
448.47257168117892,0.00049042676259170481
448.49253946801019,0.0005017750167628488
448.51250725484147,0.00051294585844869343
448.53247504167274,0.00052394026774143111
448.55244282850396,0.00053475922473322898
448.57241061533523,0.00054540370951634289
448.5923784021665,0.00055587470218293738
448.61234618899772,0.0005661731828251785
448.63231397582899,0.0005763001315353196
448.65228176266027,0.00058625652840552751
448.67224954949148,0.00059604335352796904
448.69221733632276,0.00060566158699489503
448.71218512315403,0.00061511220889847319
448.73215290998525,0.00062439619933087227
448.75212069681652,0.00063351453838434043
448.77208848364779,0.00064246820615104642
448.79205627047901,0.00065125818272315989
448.81202405731028,0.00065988544819292746
448.83199184414156,0.00066835098265251834
448.85195963097283,0.0006766557661941271
448.87192741780405,0.00068480077890992739
448.89189520463532,0.00069278700089215977
448.91186299146659,0.0007006154122329969
448.93183077829781,0.00070828699302461211
448.95179856512908,0.00071580272335924455
448.97176635196035,0.00072316358332906645
448.99173413879157,0.00073037055302625363
449.01170192562284,0.00073742461254304231
449.03166971245412,0.00074432674197160635
449.05163749928533,0.00075107792140412244
449.07160528611661,0.00075767913093282516
449.09157307294788,0.00076413135064988893
449.1115408597791,0.00077043556064749152
449.13150864661037,0.00077659274101786512
449.15147643344164,0.00078260387185318512
449.17144422027292,0.0007884699332456486
449.19141200710413,0.00079419190528743331
449.21137979393541,0.00079977076807076736
449.23134758076668,0.00080520750168783023
449.2513153675979,0.00081050308623080122
449.27128315442917,0.00081565850179190688
449.29125094126044,0.00082067472846332631
449.31121872809166,0.00082555274633724159
449.33118651492293,0.00083029353550587474
449.35115430175421,0.00083489807606140852
449.37112208858542,0.0008393673480960246
449.3910898754167,0.0008437023317019439
449.41105766224797,0.00084790400697134821
449.43102544907919,0.00085197335399642311
449.45099323591046,0.00085591135286938432
449.47096102274173,0.00085971898368241773
449.49092880957301,0.00086339722652771706
449.51089659640422,0.00086694706149746876
449.5308643832355,0.00087036946868388778
449.55083217006677,0.00087366542817915904
449.57079995689799,0.00087683592007546868
449.59076774372926,0.00087988192446503057
449.61073553056053,0.00088280442144003006
449.63070331739175,0.00088560439109265534
449.65067110422302,0.0008882828135151178
449.6706388910543,0.00089084066879960278
449.69060667788551,0.00089327893703830053
449.71057446471679,0.00089559859832341951
449.73054225154806,0.00089780063274714844
449.75051003837928,0.00089988602040167582
449.77047782521055,0.00090185574137920924
449.79044561204182,0.00090371077577193861
449.8104133988731,0.00090545210367205733
449.83038118570431,0.000907080705171758
449.85034897253558,0.00090859756036324455
449.87031675936686,0.00091000364933870709
449.89028454619807,0.00091129995219033717
449.91025233302935,0.00091248744901033837
449.93022011986062,0.00091356711989090125
449.95018790669184,0.00091453994492421919
449.97015569352311,0.0009154069042024911
449.99012348035438,0.00091616897781791201
450.0100912671856,0.00091682714586267377
450.03005905401687,0.00091738238842897584
450.05002684084815,0.00091783568560901117
450.06999462767936,0.00091818801749497401
450.08996241451064,0.00091844036417906242
450.10993020134191,0.00091859370575346955
450.12989798817318,0.00091864902231039171
450.1498657750044,0.00091860729394202317
450.16983356183567,0.00091846950074055969
450.18980134866695,0.00091823662279819627
450.20976913549816,0.00091790964020712978
450.22973692232944,0.00091748953305955316
450.24970470916071,0.00091697728144766197
450.26967249599193,0.00091637386546365371
450.2896402828232,0.00091568026519972068
450.30960806965447,0.0009148974607480593
450.32957585648569,0.00091402643220086697
450.34954364331696,0.0009130681596503349
450.36951143014824,0.00091202362318865929
450.38947921697945,0.00091089380290804037
450.40944700381073,0.00090967967890066641
450.429414790642,0.00090838223125873504
450.44938257747322,0.00090700244007444657
450.46935036430449,0.00090554128543998713
450.48931815113576,0.00090399974744755736
450.50928593796704,0.00090237880618935129
450.52925372479825,0.00090067944175756915
450.54922151162953,0.00089890263424439727
450.5691892984608,0.00089704936374203565
450.58915708529202,0.00089512061034268417
450.60912487212329,0.00089311735413852755
450.62909265895456,0.00089104057522176687
450.64906044578578,0.00088889125368460322
450.66902823261705,0.00088667036961921912
450.68899601944833,0.00088437890311781687
450.70896380627954,0.00088201783427259732
450.72893159311081,0.00087958814317574345
450.74889937994209,0.00087709080991945688
450.7688671667733,0.00087452681459593989
450.78883495360458,0.00087189713729737329
450.80880274043585,0.00086920275811595902
450.82877052726712,0.00086644465714389319
450.84873831409834,0.0008636238144733786
450.86870610092961,0.00086074121019659455
450.88867388776089,0.0008577978244057444
450.9086416745921,0.00085479463719303182
450.92860946142338,0.00085173262865063546
450.94857724825465,0.00084861277887075782
450.96854503508587,0.00084543606794560485
450.98851282191714,0.00084220347596735301
451.00848060874841,0.00083891598302820558
451.02844839557963,0.00083557456922036893
451.0484161824109,0.00083218021463601812
451.06838396924218,0.00082873389936735859
451.08835175607339,0.00082523660350659542
451.10831954290467,0.00082168930714590378
451.12828732973594,0.00081809299037748887
451.14825511656721,0.0008144486332935457
451.16822290339843,0.00081075721598628057
451.1881906902297,0.00080701971854786766
451.20815847706098,0.00080323712107051217
451.22812626389219,0.00079941040364642061
451.24809405072347,0.00079554054636776642
451.26806183755474,0.00079162852932675577
451.28802962438596,0.00078767533261559506
451.30799741121723,0.0007836819363264576
451.3279651980485,0.00077964932055154873
451.34793298487972,0.00077557846538307623
451.36790077171099,0.00077147035091321169
451.38786855854227,0.0007673259572341625
451.40783634537348,0.00076314626443813515
451.42780413220476,0.00075893225261730157
451.44777191903603,0.00075468490186386857
451.4677397058673,0.00075040519227003149
451.48770749269852,0.00074609410392799792
451.50767527952979,0.00074175261692993849
451.52764306636107,0.00073738171136806087
451.54761085319228,0.00073298236733457245
451.56757864002356,0.00072855556492164427
451.58754642685483,0.00072410228422148306
451.60751421368604,0.00071962350532629748
451.62748200051732,0.00071512020832825685
451.64744978734859,0.00071059337331956952
451.66741757417981,0.00070604398039244383
451.68738536101108,0.00070147300963904833
451.70735314784235,0.00069688144115159171
451.72732093467357,0.00069227025502228273
451.74728872150484,0.00068764043134328986
451.76725650833612,0.00068299295020682197
451.78722429516733,0.00067832879170508697
451.80719208199861,0.00067364893593025365
451.82715986882988,0.000668954362974531
451.84712765566115,0.00066424605293011381
451.86709544249237,0.00065952498588921096
451.88706322932364,0.00065479214194399081
451.90703101615492,0.00065004850118666202
451.92699880298613,0.0006452950437094338
451.94696658981741,0.0006405327496044733
451.96693437664868,0.00063576259896399028
451.9869021634799,0.00063098557188019297
452.00686995031117,0.00062620264844524972
452.02683773714244,0.00062141480875136941
452.04680552397366,0.00061662303289076071
452.06677331080493,0.00061182830095559164
452.08674109763621,0.00060703159303807119
452.10670888446742,0.00060223388923040825
452.1266766712987,0.00059743616962477084
452.14664445812997,0.00059263941431336763
452.16661224496124,0.00058784460338839396
452.18658003179246,0.00058305271694205902
452.20654781862373,0.00057826473506652999
452.22651560545501,0.00057348163785401649
452.24648339228622,0.00056870440539672699
452.2664511791175,0.00056393401778682983
452.28641896594877,0.00055917145511653389
452.30638675277999,0.00055441769747804773
452.32635453961126,0.00054967372496353927
452.34632232644253,0.00054494051766521782
452.36629011327375,0.00054021905567529162
452.38625790010502,0.00053551031908592934
452.4062256869363,0.00053081528798933954
452.42619347376751,0.00052613494247773099
452.44616126059879,0.00052147026264327194
452.46612904743006,0.00051682222857817126
452.48609683426133,0.00051219182037462398
452.50606462109255,0.00050758001812483875
452.52603240792382,0.00050298780192098403
452.54600019475509,0.00049841615185526882
452.56596798158631,0.0004938660480199008
452.58593576841758,0.00048933847050704963
452.60590355524886,0.00048483439940892354
452.62587134208007,0.00048035481481773065
452.64583912891135,0.00047590069682563985
452.66580691574262,0.00047147302552486025
452.68577470257384,0.00046707278100759905
452.70574248940511,0.00046270094336602622
452.72571027623638,0.00045835849269235004
452.7456780630676,0.00045404640907877774
452.76564584989887,0.00044976567261748002
452.78561363673015,0.00044551726340066476
452.80558142356142,0.0004413021615205268
452.82554921039264,0.00043712134706927328
452.84551699722391,0.00043297580013907598
452.86548478405518,0.00042886650082214176
452.8854525708864,0.00042479442921067746
452.90542035771767,0.00042076056539685553
452.92538814454895,0.00041676588947288205
452.94535593138016,0.00041281138153096423
452.96532371821144,0.00040889802166327435
452.98529150504271,0.00040502678996201942
453.00525929187393,0.00040119866651940495
453.0252270787052,0.00039741463142760493
453.04519486553647,0.00039367566477882532
453.06516265236769,0.00038998274666527153
453.08513043919896,0.0003863368571791183
453.10509822603024,0.000382738976412571
453.12506601286145,0.00037919008445783526
453.14503379969273,0.00037569116140708609
453.165001586524,0.00037224318735252875
453.18496937335527,0.00036884714238635856
453.20493716018649,0.0003655040066007802
453.22490494701776,0.0003622147600879698
453.24487273384904,0.00035898038294013247
453.26484052068025,0.00035580185524947209
453.28480830751153,0.00035268015710816569
453.3047760943428,0.00034961626860841835
453.32474388117402,0.00034661116984243312
453.34471166800529,0.00034366584090238835
453.36467945483656,0.00034078126188048796
453.38464724166778,0.00033795841286893529
453.40461502849905,0.00033519827395990911
453.42458281533033,0.00033250182524561319
453.4445506021616,0.00032987004681824244
453.46451838899281,0.00032730391876999957
453.48448617582409,0.00032480442119306511
453.50445396265536,0.00032237253417964184
453.52442174948658,0.00032000923782193148
453.54438953631785,0.00031771551221211592
453.56435732314912,0.00031549233744239706
453.58432510998034,0.00031334069360497636
453.60429289681161,0.00031126156079203679
453.62426068364289,0.00030925591909577982
453.6442284704741,0.00030732474860840583
453.66419625730538,0.00030546902942209941
453.68416404413665,0.00030368974162906138
453.70413183096787,0.00030198786532149147
453.72409961779914,0.00030036438059157552
453.74406740463041,0.0002988202675315137
453.76403519146163,0.00029735650623350512
453.7840029782929,0.00029597407678973669
453.80397076512418,0.00029467395929240811
453.82393855195545,0.00029345713383371468
453.84390633878667,0.00029232458050585449
453.86387412561794,0.00029127727940101648
453.88384191244921,0.0002903162106113993
453.90380969928043,0.00028944235422920044
453.9237774861117,0.00028865669034661026
453.94374527294298,0.00028796019905582665
453.96371305977419,0.00028735386044904639
453.98368084660547,0.00028683865461846114
454.00364863343674,0.0002864155616562683
454.02361642026796,0.00028608556165466358
454.04358420709923,0.00028584963470584053
454.0635519939305,0.00028570876090199562
454.08351978076172,0.00028566392033532381
454.10348756759299,0.00028571609309802038
454.12345535442427,0.00028586625928228056
454.14342314125554,0.00028611539898029973
454.16339092808676,0.000286464492284272
454.18335871491803,0.00028691451928639447
454.2033265017493,0.00028746646007886173
454.22329428858052,0.00028812129475386705
454.24326207541179,0.00028888000340360919
454.26322986224307,0.0002897435661202818
454.28319764907428,0.00029071296299607724
454.30316543590556,0.00029178917412319631
454.32313322273683,0.00029297317959383153
454.34310100956804,0.00029426595950017407
454.36306879639932,0.00029566849393442707
454.38303658323059,0.00029718176298878184
454.40300437006181,0.00029880674675542929
454.42297215689308,0.00030054442532657341
454.44293994372435,0.00030239577879440527
454.46290773055563,0.00030436178725112004
454.48287551738684,0.00030644343078890682
454.50284330421812,0.00030864168949997276
