energy,intensity
444.99817677254049,-0.0048084518039907299
445.01814455937176,-0.004757763094582799
445.03811234620298,-0.0047073601960487786
445.05808013303425,-0.0046572423716887872
445.07804791986553,-0.0046074088848033828
445.09801570669674,-0.0045578589986931088
445.11798349352802,-0.0045085919766580957
445.13795128035929,-0.0044596070819988912
445.15791906719051,-0.0044109035780160403
445.17788685402178,-0.0043624807280096788
445.19785464085305,-0.0043143377952803508
445.21782242768433,-0.0042664740431284653
445.23779021451554,-0.0042188887348545683
445.25775800134682,-0.0041715811337587937
445.27772578817809,-0.0041245505031416883
445.2976935750093,-0.0040777961063037929
445.31766136184058,-0.0040313172065452483
445.33762914867185,-0.003985113067166598
445.35759693550307,-0.0039391829514683809
445.37756472233434,-0.0038935261227507419
445.39753250916561,-0.0038481418443142229
445.41750029599683,-0.0038030293794593601
445.4374680828281,-0.0037581879914863033
445.45743586965938,-0.0037136169436955925
445.47740365649059,-0.0036693154993877593
445.49737144332187,-0.0036252829218629619
445.51733923015314,-0.003581518474421736
445.53730701698441,-0.0035380214203644868
445.55727480381563,-0.0034947910229917471
445.5772425906469,-0.003451826545603681
445.59721037747818,-0.0034091272515008172
445.61717816430939,-0.0033666924039836873
445.63714595114067,-0.0033245212663524566
445.65711373797194,-0.0032826131019076561
445.67708152480316,-0.0032409671739498103
445.69704931163443,-0.0031995827457790933
445.7170170984657,-0.0031584590806960303
445.73698488529692,-0.0031175954420011457
445.75695267212819,-0.0030769910929946175
445.77692045895947,-0.0030366452969769696
445.79688824579068,-0.0029965573172487229
445.81685603262196,-0.0029567264171100598
445.83682381945323,-0.0029171518598615021
445.8567916062845,-0.0028778329088034577
445.87675939311572,-0.0028387688272364471
445.89672717994699,-0.0027999588784606566
445.91669496677827,-0.0027614023257766054
445.93666275360948,-0.0027230984324848116
445.95663054044076,-0.0026850464618854643
445.97659832727203,-0.0026472456772790808
445.99656611410325,-0.0026096953419661776
446.01653390093452,-0.0025723947192469497
446.03650168776579,-0.0025353430724219116
446.05646947459701,-0.0024985396647915774
446.07643726142828,-0.0024619837596561453
446.09640504825956,-0.002425674620316128
446.11637283509077,-0.0023896115100720374
446.13634062192205,-0.0023537936922240778
446.15630840875332,-0.0023182204300727584
446.17627619558459,-0.0022828909869184893
446.19624398241581,-0.0022478046260617766
446.21621176924708,-0.0022129606108028306
446.23617955607835,-0.0021783582044421598
446.25614734290957,-0.0021439966702802705
446.27611512974084,-0.0021098752716173742
446.29608291657212,-0.0020759932717539799
446.31605070340333,-0.0020423499339905886
446.33601849023461,-0.0020089445216274191
446.35598627706588,-0.0019757762979649746
446.3759540638971,-0.001942844526303759
446.39592185072837,-0.0019101484699439917
446.41588963755964,-0.0018776873921861766
446.43585742439086,-0.0018454605563308119
446.45582521122213,-0.0018134672256781227
446.47579299805341,-0.0017817066635286113
446.49576078488468,-0.0017501781331826832
446.5157285717159,-0.0017188808979408403
446.53569635854717,-0.0016878142211033086
446.55566414537844,-0.0016569773659705883
446.57563193220966,-0.0016263695958431724
446.59559971904093,-0.0015959901740212987
446.61556750587221,-0.0015658383638054592
446.63553529270342,-0.0015359134284961497
446.6555030795347,-0.0015062146313936083
446.67547086636597,-0.0014767412357983272
446.69543865319719,-0.0014474925050108
446.71540644002846,-0.0014184677023312666
446.73537422685973,-0.00138966609106022
446.75534201369095,-0.0013610869344981508
446.77530980052222,-0.0013327294959453034
446.7952775873535,-0.0013045930387021684
446.81524537418471,-0.0012766768260692328
446.83521316101599,-0.0012489801213467465
446.85518094784726,-0.001221502187835199
446.87514873467853,-0.0011942422888349964
446.89511652150975,-0.0011671996876466257
446.91508430834102,-0.0011403736475703405
446.9350520951723,-0.001113763431906627
446.95501988200351,-0.0010873683039559687
446.97498766883479,-0.0010611875270186242
446.99495545566606,-0.0010352203643950748
447.01492324249728,-0.0010094660793858055
447.03489102932855,-0.00098392393529107554
447.05485881615982,-0.00095859319541136893
447.07482660299104,-0.00093347312304716381
447.09479438982231,-0.00090856298149872628
447.11476217665358,-0.00088386203406653617
447.1347299634848,-0.00085936954405107201
447.15469775031607,-0.00083508477475260294
447.17466553714735,-0.00081100698947160683
447.19463332397862,-0.00078713545150849249
447.21460111080984,-0.00076346942416373551
447.23456889764111,-0.0007400081707376095
447.25453668447238,-0.00071675095453059101
447.2745044713036,-0.00069369703884315282
447.29447225813487,-0.00067084568697557364
447.31444004496615,-0.00064819616222832591
447.33440783179736,-0.00062574772790188369
447.35437561862864,-0.00060349964729652645
447.37434340545991,-0.00058145118371272697
447.39431119229113,-0.00055960160045095617
447.4142789791224,-0.00053795016081149773
447.43424676595367,-0.00051649612809482259
447.45421455278489,-0.00049523876560139961
447.47418233961616,-0.00047417733663151622
447.49415012644744,-0.00045331110448564163
447.51411791327871,-0.00043263933246418337
447.53408570010993,-0.00041216128386761038
447.5540534869412,-0.00039187622199621263
447.57402127377247,-0.00037178341015045677
447.59398906060369,-0.00035188211163080912
447.61395684743496,-0.00033217158973756393
447.63392463426624,-0.00031265110777118688
447.65389242109745,-0.00029331992903214175
447.67386020792873,-0.00027417731682072581
447.69382799476,-0.00025522253443740334
447.71379578159122,-0.00023645484518263615
447.73376356842249,-0.00021787351235672599
447.75373135525376,-0.00019947779926013425
447.77369914208498,-0.00018126696919332181
447.79366692891625,-0.0001632402854565929
447.81363471574753,-0.00014539701135040913
447.8336025025788,-0.00012773641017517723
447.85357028941002,-0.00011025774523135651
447.87353807624129,-9.2960279819255675e-05
447.89350586307256,-7.5843277239332632e-05
447.91347364990378,-5.8906000792044634e-05
447.93344143673505,-4.2147713777703272e-05
447.95340922356633,-2.5567679496765357e-05
447.97337701039754,-9.1651612496862037e-06
447.99334479722881,7.0605776632185173e-06
448.01331258406009,2.3110273941495438e-05
448.0332803708913,3.8984664284689455e-05
448.05324815772258,5.4684485392482528e-05
448.07321594455385,7.0210473964421293e-05
448.09318373138507,8.5563366700053874e-05
448.11315151821634,0.00010074390029905856
448.13311930504761,0.00011575281146098394
448.15308709187889,0.00013059083688542016
448.1730548787101,0.00014525871327191836
448.19302266554138,0.0001597571773201532
448.21299045237265,0.00017408696572967451
448.23295823920387,0.0001882488152000335
448.25292602603514,0.00020224346243090209
448.27289381286641,0.00021607164412183134
448.29286159969763,0.00022973409697237408
448.3128293865289,0.00024323155768220023
448.33279717336018,0.00025656476295086154
448.35276496019139,0.0002697344494779124
448.37273274702267,0.00028274135396302017
448.39270053385394,0.00029558621310573724
448.41266832068516,0.00030826976360562015
448.43263610751643,0.00032079274216233178
448.4526038943477,0.00033315588547542808
448.47257168117892,0.00034535993024446658
448.49253946801019,0.00035740561316910738
448.51250725484147,0.00036929367094890747
448.53247504167274,0.00038102484028345771
448.55244282850396,0.00039259985787231766
448.57241061533523,0.00040401946041514447
448.5923784021665,0.00041528438461149698
448.61234618899772,0.00042639536716093462
448.63231397582899,0.00043735314476311195
448.65228176266027,0.00044815845411758917
448.67224954949148,0.00045881203192392781
448.69221733632276,0.00046931461488177958
448.71218512315403,0.00047966693969070628
448.73215290998525,0.00048986974305026984
448.75212069681652,0.00049992376166012006
448.77208848364779,0.00050982973221981901
448.79205627047901,0.00051958839142893134
448.81202405731028,0.00052920047598710332
448.83199184414156,0.00053866672259389925
448.85195963097283,0.00054798786794890979
448.87192741780405,0.00055716464875170174
448.89189520463532,0.00056619780170191769
448.91186299146659,0.00057508806349912335
448.93183077829781,0.00058383617084288575
448.95179856512908,0.00059244286043284573
448.97176635196035,0.00060090886896857021
448.99173413879157,0.00060923493314962674
449.01170192562284,0.00061742178967565456
449.03166971245412,0.00062547017524622111
449.05163749928533,0.00063338082656089591
449.07160528611661,0.00064115448031931558
449.09157307294788,0.00064879187322104768
449.1115408597791,0.00065629374196566411
449.13150864661037,0.00066366082325279888
449.15147643344164,0.00067089385378202152
449.17144422027292,0.00067799357025292366
449.19141200710413,0.00068496070936507761
449.21137979393541,0.00069179600781811373
449.23134758076668,0.00069850020231160422
449.2513153675979,0.00070507402954512186
449.27128315442917,0.00071151822621829536
449.29125094126044,0.00071783352903069715
449.31121872809166,0.00072402067468190238
449.33118651492293,0.00073008039987153685
449.35115430175421,0.00073601344129917471
449.37112208858542,0.00074182053566439134
449.3910898754167,0.00074750241966681057
449.41105766224797,0.00075305983000600754
449.43102544907919,0.00075849350338155948
449.45099323591046,0.00076380417649308738
449.47096102274173,0.00076899258604016803
449.49092880957301,0.00077405946872239207
449.51089659640422,0.00077900556123933825
449.5308643832355,0.00078383160029062583
449.55083217006677,0.00078853832257583169
449.57079995689799,0.00079312646479453425
449.59076774372926,0.00079759676364635278
449.61073553056053,0.00080194995583086372
449.63070331739175,0.00080618677804764765
449.65067110422302,0.00081030796699632028
449.6706388910543,0.00081431425937646053
449.69060667788551,0.00081820639188764899
449.71057446471679,0.00082198510122949908
449.73054225154806,0.0008256511241015919
449.75051003837928,0.00082920519720350858
449.77047782521055,0.00083264805723486123
449.79044561204182,0.00083598044089523032
449.8104133988731,0.00083920308488420791
449.83038118570431,0.00084231672590137706
449.85034897253558,0.00084532210064634631
449.87031675936686,0.00084821994581869874
449.89028454619807,0.00085101099811801817
449.91025233302935,0.00085369599424391172
449.93022011986062,0.00085627567089596279
449.95018790669184,0.00085875076477375564
449.97015569352311,0.00086112201257689685
449.99012348035438,0.00086339015100496983
450.0100912671856,0.00086555591675756131
450.03005905401687,0.00086762004653427366
450.05002684084815,0.00086958327703469277
450.06999462767936,0.00087144634495840516
450.08996241451064,0.0008732099870050131
450.10993020134191,0.00087487493987410182
450.12989798817318,0.0008764419402652637
450.1498657750044,0.00087791172487808615
450.16983356183567,0.00087928503041216882
450.18980134866695,0.000880562593567099
450.20976913549816,0.00088174515104246453
450.22973692232944,0.00088283343953786408
450.24970470916071,0.00088382819575288615
450.26967249599193,0.00088473015638711899
450.2896402828232,0.00088554005814015999
450.30960806965447,0.00088625863771159752
450.32957585648569,0.00088688663180102104
450.34954364331696,0.00088742477710802674
450.36951143014824,0.00088787381033220353
450.38947921697945,0.00088823446817314219
450.40944700381073,0.00088850748733043607
450.429414790642,0.00088869360450367593
450.44938257747322,0.00088879355639245265
450.46935036430449,0.00088880807969635882
450.48931815113576,0.00088873791111498544
450.50928593796704,0.00088858378734792403
450.52925372479825,0.00088834644509476696
450.54922151162953,0.00088802662105510403
450.5691892984608,0.00088762505192852773
450.58915708529202,0.00088714247441463079
450.60912487212329,0.00088657962521300254
450.62909265895456,0.00088593724102323495
450.64906044578578,0.00088521605854492214
450.66902823261705,0.00088441681447765151
450.68899601944833,0.00088354024552101664
450.70896380627954,0.00088258708837461177
450.72893159311081,0.00088155807973802321
450.74889937994209,0.00088045395631084465
450.7688671667733,0.0008792754547926714
450.78883495360458,0.00087802331188308817
450.80880274043585,0.00087669826428168993
450.82877052726712,0.00087530104868806778
450.84873831409834,0.0008738324018018179
450.86870610092961,0.00087229306032252346
450.88867388776089,0.00087068376094977967
450.9086416745921,0.00086900524038318358
450.92860946142338,0.00086725823532231663
450.94857724825465,0.00086544348246677533
450.96854503508587,0.00086356171851615607
450.98851282191714,0.00086161368017004096
451.00848060874841,0.00085960010412802551
451.02844839557963,0.00085752172708970754
451.0484161824109,0.00085537928575466664
451.06838396924218,0.00085317351682250128
451.08835175607339,0.00085090515699280808
451.10831954290467,0.00084857494296516651
451.12828732973594,0.00084618361143917406
451.14825511656721,0.00084373189911442258
451.16822290339843,0.00084122054269051042
451.1881906902297,0.00083865027886701534
451.20815847706098,0.00083602184434353557
451.22812626389219,0.00083333597581967012
451.24809405072347,0.00083059340999499609
451.26806183755474,0.00082779488356911173
451.28802962438596,0.00082494113324161689
451.30799741121723,0.00082203289571208718
451.3279651980485,0.00081907090768012223
451.34793298487972,0.0008160559058453217
451.36790077171099,0.00081298862690726043
451.38786855854227,0.00080986980756553837
451.40783634537348,0.00080670018451975596
451.42780413220476,0.00080348049446948681
451.44777191903603,0.00080021147411433134
451.4677397058673,0.00079689386015388119
451.48770749269852,0.00079352838928773751
451.50767527952979,0.00079011579821547243
451.52764306636107,0.00078665682363668733
451.54761085319228,0.00078315220225098371
451.56757864002356,0.00077960267075793271
451.58754642685483,0.00077600896585713669
451.60751421368604,0.0007723718242481966
451.62748200051732,0.00076869198263068402
451.64744978734859,0.00076497017770420011
451.66741757417981,0.00076120714616834746
451.68738536101108,0.00075740362472269656
451.70735314784235,0.0007535603500668489
451.72732093467357,0.0007496780589004076
451.74728872150484,0.00074575748792294206
451.76725650833612,0.00074179937383405455
451.78722429516733,0.00073780445333334818
451.80719208199861,0.00073377346312039149
451.82715986882988,0.00072970713989478815
451.84712765566115,0.00072560622035612837
451.86709544249237,0.00072147144120401679
451.88706322932364,0.00071730353913802055
451.90703101615492,0.00071310325085774319
451.92699880298613,0.00070887131306278839
451.94696658981741,0.00070460846245272348
451.96693437664868,0.00070031543572715202
451.9869021634799,0.0006959929695856779
452.00686995031117,0.00069164180072786769
452.02683773714244,0.00068726266585332604
452.04680552397366,0.00068285630166165596
452.06677331080493,0.00067842344485242491
452.08674109763621,0.00067396483212523654
452.10670888446742,0.00066948120017969485
452.1266766712987,0.00066497328571536599
452.14664445812997,0.00066044182543185449
452.16661224496124,0.00065588755602875176
452.18658003179246,0.00065131121420566244
452.20654781862373,0.0006467135366621515
452.22651560545501,0.00064209526009782443
452.24648339228622,0.00063745712121228502
452.2664511791175,0.00063279985670509887
452.28641896594877,0.00062812420327587072
452.30638675277999,0.00062343089762420523
452.32635453961126,0.00061872067644966734
452.34632232644253,0.00061399427645186214
452.36629011327375,0.00060925243433039436
452.38625790010502,0.00060449588678482844
452.4062256869363,0.00059972537051476986
452.42619347376751,0.00059494162221982328
452.44616126059879,0.00059014537859955344
452.46612904743006,0.00058533737635356508
452.48609683426133,0.00058051835218144994
452.50606462109255,0.0005756890427828132
452.52603240792382,0.00057085018485721897
452.54600019475509,0.00056600251510427262
452.56596798158631,0.00056114677022357947
452.58593576841758,0.00055628368691470283
452.60590355524886,0.00055141400187724886
452.62587134208007,0.00054653845181082265
452.64583912891135,0.00054165777341498805
452.66580691574262,0.00053677270338935027
452.68577470257384,0.0005318839784335149
452.70574248940511,0.0005269923352470454
452.72571027623638,0.00052209851052954759
452.7456780630676,0.00051720324098062677
452.76564584989887,0.00051230726329984648
452.78561363673015,0.00050741131418681246
452.80558142356142,0.00050251613034111577
452.82554921039264,0.00049762244846236227
452.84551699722391,0.0004927310052501156
452.86548478405518,0.00048784253740398107
452.8854525708864,0.00048295778162356416
452.90542035771767,0.00047807747460842855
452.92538814454895,0.0004732023530581799
452.94535593138016,0.00046833315367242323
452.96532371821144,0.00046347061315072269
452.98529150504271,0.00045861546819268324
453.00525929187393,0.00045376845549791072
453.0252270787052,0.00044893031176596878
453.04519486553647,0.00044410177369646266
453.06516265236769,0.00043928357798899776
453.08513043919896,0.00043447646134313827
453.10509822603024,0.00042968116045848917
453.12506601286145,0.00042489841203465579
453.14503379969273,0.00042012895277120235
453.165001586524,0.00041537351936773406
453.18496937335527,0.00041063284852384247
453.20493716018649,0.0004059076769391323
453.22490494701776,0.00040119874131316847
453.24487273384904,0.0003965067783455559
453.26484052068025,0.00039183252473589948
453.28480830751153,0.00038717671718376391
453.3047760943428,0.00038254009238875404
453.32474388117402,0.00037792338705047469
453.34471166800529,0.00037332733786849096
453.36467945483656,0.00036875268154240777
453.38464724166778,0.00036420015477182932
453.40461502849905,0.00035967049425632156
453.42458281533033,0.00035516443669548857
453.4445506021616,0.0003506827187889221
453.46451838899281,0.00034622607723622625
453.48448617582409,0.00034179524873696743
453.50445396265536,0.00033739096999074974
453.52442174948658,0.00033301397769717686
453.54438953631785,0.00032866500855581579
453.56435732314912,0.00032434479926627026
453.58432510998034,0.0003200540865281442
453.60429289681161,0.00031579360704100463
453.62426068364289,0.00031156409750445526
453.6442284704741,0.00030736629461809961
453.66419625730538,0.00030320093508150528
453.68416404413665,0.00029906875559427583
453.70413183096787,0.00029497049285601428
453.72409961779914,0.0002909068835662891
453.74406740463041,0.00028687866442470315
453.76403519146163,0.0002828865721308595
453.7840029782929,0.000278931343384327
453.80397076512418,0.00027501371488470846
453.82393855195545,0.0002711344233315955
453.84390633878667,0.00026729420542459038
453.86387412561794,0.00026349379786326293
453.88384191244921,0.00025973393734721564
453.90380969928043,0.00025601536057605052
453.9237774861117,0.00025233880424933793
453.94374527294298,0.00024870500506667998
453.96371305977419,0.00024511469972767852
453.98368084660547,0.0002415686249319044
454.00364863343674,0.00023806751737895964
454.02361642026796,0.00023461211376844555
454.04358420709923,0.00023120315079993382
454.0635519939305,0.00022784136517302596
454.08351978076172,0.0002245274935873229
454.10348756759299,0.00022126227274239725
454.12345535442427,0.00021804643933785004
454.14342314125554,0.00021488073007327281
454.16339092808676,0.00021176588164826591
454.18335871491803,0.00020870263076240309
454.2033265017493,0.00020569171411528487
454.22329428858052,0.00020273386840651111
454.24326207541179,0.00019982983033565641
454.26322986224307,0.00019698033660232091
454.28319764907428,0.00019418612390610396
454.30316543590556,0.00019144792894658117
454.32313322273683,0.00018876648842335215
454.34310100956804,0.00018614253903601573
454.36306879639932,0.00018357681748414859
454.38303658323059,0.00018107006046734977
454.40300437006181,0.00017862300468521759
454.42297215689308,0.00017623638683732988
454.44293994372435,0.00017391094362328497
454.46290773055563,0.00017164741174267449
454.48287551738684,0.0001694465278950962
454.50284330421812,0.00016730902878012898
