energy,intensity
519.98997854872653,-0.00034599501545761981
520.0397789891216,-0.00042225791699071073
520.08957942951668,-0.00049469862715124566
520.13937986991175,-0.00056337752312462879
520.18918031030694,-0.00062835498209640943
520.23898075070201,-0.00068969138125169523
520.28878119109709,-0.00074744709777604349
520.33858163149216,-0.00080168250885485903
520.38838207188724,-0.00085245799167354671
520.43818251228231,-0.00089983392341751037
520.48798295267738,-0.0009438706812721552
520.53778339307246,-0.00098462864242288613
520.58758383346765,-0.0010221681840551886
520.63738427386272,-0.0010565496833542971
520.6871847142578,-0.001087833517505705
520.73698515465287,-0.0011160800636948183
520.78678559504795,-0.0011413496991070399
520.83658603544302,-0.0011637028009277759
520.88638647583809,-0.0011831997463424282
520.93618691623317,-0.0011999009125364044
520.98598735662836,-0.0012138666766951369
521.03578779702343,-0.0012251574160039667
521.08558823741851,-0.0012338335076483337
521.13538867781358,-0.0012399553288136422
521.18518911820865,-0.001243583256685296
521.23498955860373,-0.0012447776684487001
521.2847899989988,-0.0012435989412892614
521.33459043939388,-0.0012401074523923825
521.38439087978907,-0.0012343635789434509
521.43419132018414,-0.0012264276981279007
521.48399176057922,-0.0012163601871311247
521.53379220097429,-0.0012042214231385265
521.58359264136936,-0.0011900717833355119
521.63339308176444,-0.0011739716449074848
521.68319352215951,-0.0011559813850398511
521.73299396255459,-0.0011361613809180149
521.78279440294978,-0.0011145720097273284
521.83259484334485,-0.0010912736486532958
521.88239528373992,-0.0010663266748812755
521.932195724135,-0.0010397914655966701
521.98199616453007,-0.0010117283979848861
522.03179660492515,-0.00098219784923132413
522.08159704532022,-0.00095126019652139572
522.1313974857153,-0.00091897581704050084
522.18119792611049,-0.00088540508797396614
522.23099836650556,-0.00085060838650735074
522.28079880690063,-0.00081464608982598262
522.33059924729571,-0.00077757857511526825
522.38039968769078,-0.0007394662195606117
522.43020012808586,-0.00070036940034741749
522.48000056848093,-0.00066034849466108992
522.52980100887601,-0.00061946387968703437
522.57960144927119,-0.000577775932610558
522.62940188966627,-0.00053534503061725722
522.67920233006134,-0.00049223155089244373
522.72900277045642,-0.00044849587062151686
522.77880321085149,-0.00040419836698988762
522.82860365124657,-0.00035939941718295945
522.87840409164164,-0.00031415939838613175
522.92820453203683,-0.00026853868778470963
522.9780049724319,-0.00022259766256430458
523.02780541282698,-0.0001763966999102193
523.07760585322205,-0.00012999617700785429
523.12740629361713,-8.3456471042618412e-05
523.1772067340122,-3.6837959199913684e-05
523.22700717440728,9.798981334853971e-06
523.27680761480235,5.6393973376281012e-05
523.32660805519754,0.00010288663973906983
523.37640849559261,0.0001492166032375982
523.42620893598769,0.00019532348668657284
523.47600937638276,0.00024114691290058902
523.52580981677784,0.00028662650469423638
523.57561025717291,0.0003317018848821181
523.62541069756799,0.00037631267627882771
523.67521113796306,0.00042039850169895549
523.72501157835825,0.00046389898395719905
523.77481201875332,0.00050675374586795397
523.8246124591484,0.00054890241024591589
523.87441289954347,0.00059028459990568432
523.92421333993855,0.00063083993766185095
523.97401378033362,0.00067050804632900877
524.0238142207287,0.0007092285487217563
524.07361466112377,0.00074694106765468859
524.12341510151896,0.00078358522594248309
524.17321554191403,0.00081910064639956919
524.22301598230911,0.00085342695184062131
524.27281642270418,0.00088650376508024099
524.32261686309926,0.00091827070893302242
524.37241730349433,0.00094866740621356131
524.42221774388941,0.00097763347973645119
524.47201818428448,0.0010051085523162882
524.52181862467967,0.0010310322467677263
524.57161906507474,0.0010553441859052401
524.62141950546982,0.0010779839925434856
524.67121994586489,0.0010988912894970618
524.72102038625997,0.0011180056995805624
524.77082082665504,0.0011352668456085799
524.82062126705011,0.0011506143503957149
524.87042170744519,0.0011639878367565558
524.92022214784038,0.00117532692750573
524.97002258823545,0.0011845712454577745
525.01982302863053,0.0011916604134273156
525.0696234690256,0.001196534054228946
525.11942390942068,0.0011991317906772654
525.16922434981575,0.0011993932455868659
525.21902479021082,0.0011972580417723474
525.2688252306059,0.0011926658020482948
525.31862567100109,0.0011855561492292981
525.36842611139616,0.0011758687061299744
525.41822655179124,0.001163543095564911
525.46802699218631,0.0011485189403487002
525.51782743258138,0.0011307358632959407
525.56762787297646,0.0011101334872212257
525.61742831337153,0.0010866514349391512
525.66722875376672,0.0010602293292642467
525.7170291941618,0.0010308067930112335
525.76682963455687,0.00099832344899464156
525.81663007495195,0.00096271892002907679
525.86643051534702,0.00092393282892912817
525.91623095574209,0.00088190479850938945
525.96603139613717,0.00083657445158445655
526.01583183653224,0.00078788141096893145
526.06563227692743,0.00073576529947727998
526.11543271732251,0.00068016573992434048
526.16523315771758,0.00062102235512458571
526.21503359811265,0.00055827476789261461
526.26483403850773,0.00049186260104302614
526.3146344789028,0.00042172547739041319
526.36443491929788,0.00034780301974937037
526.41423535969295,0.000270034850934491
526.46403580008814,0.00018836059376018625
526.51383624048322,0.00010271987104141546
526.56363668087829,1.305230559259761e-05
526.61343712127336,-8.0702479771667043e-05
526.66323756166844,-0.00017860486223679386
526.71303800206351,-0.00028071521898818431
526.76283844245859,-0.00038709392721123902
526.81263888285366,-0.00049780136409136293
526.86243932324885,-0.00061289790681423595
526.91223976364392,-0.00073244393256472525
526.962040204039,-0.00085649981852850207
527.01184064443407,-0.00098512594189097049
527.06164108482915,-0.0011183826798375346
527.11144152522422,-0.0012563304095535932
527.1612419656193,-0.0013990295082245601
527.21104240601437,-0.001546540353035834
527.26084284640956,-0.001698923321173172
527.31064328680463,-0.0018562387898212913
527.36044372719971,-0.00201854713616593
527.41024416759478,-0.0021859087373924946
527.46004460798986,-0.0023583839706863927
527.50984504838493,-0.0025360332132330224
527.55964548878001,-0.0027189168422177973
527.60944592917508,-0.0029070947865615536
527.65924636957027,-0.0031001647660585784
527.70904680996534,-0.0032963894784560472
527.75884725036042,-0.0034937920089232804
527.80864769075549,-0.0036903954426291338
527.85844813115057,-0.0038842228647424995
527.90824857154564,-0.0040732973604322553
527.95804901194072,-0.0042556420148672589
528.00784945233579,-0.00442927991321639
528.05764989273098,-0.0045922341406488924
528.10745033312605,-0.0047425277823328858
528.15725077352113,-0.0048781839234376288
528.2070512139162,-0.0049972256491320026
528.25685165431128,-0.0050976760445848755
528.30665209470635,-0.0051775581949651261
528.35645253510143,-0.0052348951854416237
528.4062529754965,-0.0052677101011832537
528.45605341589169,-0.0052740260273588611
528.50585385628676,-0.0052518660491372975
528.55565429668184,-0.0051992532516874756
528.60545473707691,-0.005114210720178286
528.65525517747199,-0.0049947615397785833
528.70505561786706,-0.0048389287956572651
528.75485605826213,-0.0046447355729831823
528.80465649865732,-0.0044102049569246099
528.8544569390524,-0.004135432892279689
528.90425737944747,-0.0038307677516018906
528.95405781984255,-0.0035097219584112813
529.00385826023762,-0.0031858088432103124
529.0536587006327,-0.002872541736501602
529.10345914102777,-0.0025834339687877961
529.15325958142284,-0.0023319988705713113
529.20306002181803,-0.0021317497723544743
529.25286046221311,-0.0019962000046406803
529.30266090260818,-0.0019388628979320754
529.35246134300326,-0.0019732517827311946
529.40226178339833,-0.0021128799895405448
529.4520622237934,-0.0023712608488628273
529.50186266418848,-0.0027619076912004936
529.55166310458355,-0.0032983338470560786
529.60146354497874,-0.0039940526469340876
529.65126398537382,-0.0048625774213338635
529.70106442576889,-0.0059174215007593567
529.75086486616397,-0.0071720982157131852
529.80066530655904,-0.0086401592769084212
529.85046574695411,-0.010330841935532298
529.90026618734919,-0.012203632169933476
529.95006662774426,-0.014197269611943009
529.99986706813945,-0.016250472453560261
530.04966750853453,-0.018301958886770997
530.0994679489296,-0.02029044710357486
530.14926838932467,-0.022154655295966719
530.19906882971975,-0.023833301655941663
530.24886927011482,-0.025265104375494507
530.2986697105099,-0.026388781646620507
530.34847015090497,-0.027143051661314366
530.39827059130016,-0.02746663261157134
530.44807103169524,-0.027317452298511347
530.49787147209031,-0.026741984018627263
530.54767191248538,-0.025812196836314083
530.59747235288046,-0.024600062152746793
530.64727279327553,-0.023177551369099714
530.69707323367061,-0.021616635886548385
530.74687367406568,-0.019989287106267351
530.79667411446087,-0.018367476429427487
530.84647455485594,-0.016823175257211442
530.89627499525102,-0.015428354990790094
530.94607543564609,-0.014254987031338318
530.99587587604117,-0.013375042780030988
531.04567631643624,-0.012839476047475151
531.09547675683132,-0.01261352285336792
531.14527719722651,-0.012640569873881513
531.19507763762158,-0.012864003779386901
531.24487807801665,-0.013227211240255166
531.29467851841173,-0.013673578926856833
531.3444789588068,-0.014146493509563318
531.39427939920188,-0.01458934165874648
531.44407983959695,-0.0149455100447764
531.49388027999203,-0.01515838533802516
531.54368072038721,-0.015171354208863175
531.59348116078229,-0.014927803737661727
531.64328160117736,-0.014477136182778627
531.69308204157244,-0.013977105221430086
531.74288248196751,-0.013445487692922475
531.79268292236259,-0.012896459749147104
531.84248336275766,-0.012344197541994784
531.89228380315274,-0.0118028772233566
531.94208424354792,-0.011286674945123032
531.991884683943,-0.01080976685918722
532.04168512433807,-0.010400691562830466
532.09148556473315,-0.010091556646246946
532.14128600512822,-0.0098757009453877553
532.1910864455233,-0.0097450883698156909
532.24088688591837,-0.0096916828290933288
532.29068732631345,-0.0097074482327837441
532.34048776670863,-0.0097843484904499012
532.39028820710371,-0.0099143475116540425
532.44008864749878,-0.010089409205959132
532.48988908789386,-0.010301497482928135
532.53968952828893,-0.010542576252123903
532.58948996868401,-0.010804609423108902
532.63929040907908,-0.011079560905446206
532.68909084947416,-0.011359394608698337
532.73889128986934,-0.011636074442429034
532.78869173026442,-0.011901564316199653
532.83849217065949,-0.012147828139573547
532.88829261105457,-0.01236682982211379
532.93809305144964,-0.012550533273382625
532.98789349184472,-0.012690902402943682
533.03769393223979,-0.012779901120359205
533.08749437263486,-0.01280949333519199
533.13729481303005,-0.012771642957004503
533.18709525342513,-0.012658313895360318
533.2368956938202,-0.012464155162749235
533.28669613421528,-0.012198097996723667
533.33649657461035,-0.011873803621141987
533.38629701500543,-0.011504936313414871
533.4360974554005,-0.011105160350953325
533.48589789579557,-0.010688140011168468
533.53569833619076,-0.010267539571469975
533.58549877658584,-0.0098570233092712956
533.63529921698091,-0.0094702555019818835
533.68509965737599,-0.0091209004270133009
533.73490009777106,-0.0088226223617762223
533.78470053816613,-0.0085890855836813218
533.83450097856121,-0.0084382814417253149
533.88430141895628,-0.0083813914535436629
533.93410185935147,-0.0084074763383572559
533.98390229974655,-0.0085048146056329044
534.03370274014162,-0.0086616847648371964
534.0835031805367,-0.0088663653254372754
534.13330362093177,-0.0091071347969002847
534.18310406132684,-0.0093722716886927016
534.23290450172192,-0.0096500545102817803
534.28270494211711,-0.0099287617711342202
534.33250538251218,-0.010196671980716943
534.38230582290726,-0.010442063648496425
534.43210626330233,-0.010653639948962623
534.4819067036974,-0.010826908306684757
534.53170714409248,-0.01096285420849219
534.58150758448755,-0.011062618654647416
534.63130802488263,-0.011127342645414151
534.68110846527782,-0.011158167181055001
534.73090890567289,-0.011156233261833126
534.78070934606797,-0.011122681888012464
534.83050978646304,-0.011058654059854511
534.88031022685811,-0.01096529077762376
534.93011066725319,-0.010843733041582593
534.97991110764826,-0.010695121851994283
535.02971154804334,-0.01052059820912199
535.07951198843853,-0.010321303113228542
535.1293124288336,-0.010098377564577543
535.17911286922867,-0.0098529625634319329
535.22891330962375,-0.0095861991100546495
535.27871375001882,-0.0092992282047090757
535.3285141904139,-0.0089931908476578171
535.37831463080897,-0.0086692280391643672
535.42811507120405,-0.0083284807794916649
535.47791551159924,-0.0079720900689022045
535.52771595199431,-0.0076011969076607011
535.57751639238938,-0.0072169422960292051
535.62731683278446,-0.0068203930254668865
535.67711727317953,-0.0064108648092539022
535.72691771357461,-0.0059858973258570813
535.77671815396968,-0.0055429510533017146
535.82651859436476,-0.0050794864696107611
535.87631903475994,-0.0045929640528087345
535.92611947515502,-0.0040808442809205925
535.97591991555009,-0.0035405876319696272
536.02572035594517,-0.0029696545839803523
536.07552079634024,-0.0023655056149765041
536.12532123673532,-0.0017256012029824852
536.17512167713039,-0.0010474018260220319
536.22492211752547,-0.0003289203173846289
536.27472255792065,0.00041792059278911164
536.32452299831573,0.0011665835054411877
536.3743234387108,0.0018898376038967157
536.42412387910588,0.0025604520714791468
536.47392431950095,0.0031511960915104886
536.52372475989603,0.0036348388473144144
536.5735252002911,0.003984149522213154
536.62332564068618,0.0041763224210512595
536.67312608108136,0.0042281667112347154
536.72292652147644,0.004162957155032676
536.77272696187151,0.0040014012057010273
536.82252740226659,0.0037642063164939898
536.87232784266166,0.0034720799406678937
536.92212828305674,0.0031457295314774036
536.97192872345181,0.0028058625421777394
537.02172916384689,0.0024731864260235659
537.07152960424207,0.0021684086362708799
537.12133004463715,0.0019122366261749013
537.17113048503222,0.0017253778489902949
537.2209309254273,0.0016284582784232837
537.27073136582237,0.0016336997140693477
537.32053180621745,0.0017377310610859897
537.37033224661252,0.0019354874499492025
537.42013268700771,0.002221904011137199
537.46993312740278,0.0025919158751257498
537.51973356779786,0.0030404581723917357
537.56953400819293,0.0035624660334129254
537.61933444858801,0.0041528745886654228
537.66913488898308,0.0048066189686267746
537.71893532937816,0.0055186343037739727
537.76873576977323,0.0062838557245834537
537.81853621016842,0.0070971817131113557
537.86833665056349,0.0079456526640774294
537.91813709095857,0.0087987328192035141
537.96793753135364,0.0096235014605702274
538.01773797174872,0.010387037870259408
538.06753841214379,0.011056421330352784
538.11733885253886,0.01159873112293186
538.16713929293394,0.011981046530078365
538.21693973332913,0.012170703748110023
538.2667401737242,0.012152725416858745
538.31654061411928,0.011940940831330016
538.36634105451435,0.011551827514911017
538.41614149490943,0.011006721350229176
538.4659419353045,0.010402278481180027
538.51574237569957,0.0097811779025996914
538.56554281609465,0.0091533403535555835
538.61534325648984,0.0085286865731143413
538.66514369688491,0.0079171373003460999
538.71494413727999,0.0073286132743173305
538.76474457767506,0.0067730352340953925
538.81454501807013,0.0062603030752214073
538.86434545846521,0.005796583162785085
538.91414589886028,0.0053800256151381731
538.96394633925536,0.0050077429170871657
539.01374677965055,0.0046768475534382792
539.06354722004562,0.00438445200899934
539.1133476604407,0.00412766876857662
539.16314810083577,0.0039036103169766689
539.21294854123084,0.0037093891390062028
539.26274898162592,0.0035421177194719378
539.31254942202099,0.0033989085431806454
539.36234986241607,0.0032768740949390418
539.41215030281126,0.00317312685955351
539.46195074320633,0.0030847793218313768
539.5117511836014,0.0030089439665789142
539.56155162399648,0.0029427332786030047
539.61135206439155,0.002883259742710198
539.66115250478663,0.0028276358437074323
539.7109529451817,0.0027729740664014235
539.76075338557689,0.0027163868955983883
539.81055382597197,0.0026549868161055978
539.86035426636704,0.0025858863127296017
539.91015470676211,0.0025061978702771714
539.95995514715719,0.0024130339735548567
540.00975558755226,0.0023035223371709601
540.05955602794734,0.0021762932136121793
540.10935646834241,0.0020327278482832334
540.15915690873749,0.0018745014144481709
540.20895734913267,0.0017032890853714289
540.25875778952775,0.0015207660343182772
540.30855822992282,0.0013286074345525423
540.3583586703179,0.0011284884593389943
540.40815911071297,0.00092208428194201497
540.45795955110805,0.00071107007562609681
540.50775999150312,0.00049712101365556594
540.55756043189831,0.00028191226929463742
540.60736087229338,6.7119015808692062e-05
540.65716131268846,-0.00014558357353855467
540.70696175308353,-0.00035452032548211054
540.75676219347861,-0.00055801606675787152
540.80656263387368,-0.00075439562410106742
540.85636307426876,-0.00094198382424748317
540.90616351466383,-0.0011191054939325706
540.95596395505902,-0.0012840854598922258
541.00576439545409,-0.0014352635951643267
541.05556483584917,-0.0015722667561823833
541.10536527624424,-0.0016969759863001421
541.15516571663932,-0.0018115000774391321
541.20496615703439,-0.0019179478215217705
541.25476659742947,-0.0020184280104702523
541.30456703782454,-0.0021150494362062178
541.35436747821973,-0.0022099208906519729
541.4041679186148,-0.002305151165729602
541.45396835900988,-0.002402849053360856
541.50376879940495,-0.0025051233454683741
541.55356923980003,-0.0026140828339734634
541.6033696801951,-0.0027318363107986521
541.65317012059018,-0.0028604925678660242
541.70297056098525,-0.003002160397097442
541.75277100138044,-0.0031589485904154335
541.80257144177551,-0.0033329659397414169
541.85237188217059,-0.0035263212369976982
541.90217232256566,-0.0037411232741060285
541.95197276296074,-0.0039794808429891582
542.00177320335581,-0.0042435027355686161
542.05157364375088,-0.0045352977437665976
542.10137408414596,-0.0048569746595052976
542.15117452454115,-0.0052106422747073555
542.20097496493622,-0.0055984093812924129
542.2507754053313,-0.0060208607119707214
542.30057584572637,-0.0064725004064244418
542.35037628612145,-0.006946316357002158
542.40017672651652,-0.0074352964560528978
542.44997716691159,-0.0079324285959256891
542.49977760730667,-0.0084307006689693376
542.54957804770186,-0.0089231005675342034
542.59937848809693,-0.0094026161839663169
542.64917892849201,-0.0098622354106160381
542.69897936888708,-0.010294946139832395
542.74877980928215,-0.010693736263963971
542.79858024967723,-0.011051593675360127
542.8483806900723,-0.011362304294614489
542.89818113046749,-0.011624117890676189
542.94798157086257,-0.011836835507076815
542.99778201125764,-0.012000259740189589
543.04758245165272,-0.012114193186386846
543.09738289204779,-0.012178438442041695
543.14718333244286,-0.01219279810352647
543.19698377283794,-0.012157074767214171
543.24678421323301,-0.012071071029477243
543.2965846536282,-0.011934589486687353
543.34638509402328,-0.011747432735218943
543.39618553441835,-0.01150940337144335
543.44598597481342,-0.011244909547993509
543.4957864152085,-0.010997033481216056
543.54558685560357,-0.010769765854871438
543.59538729599865,-0.010566317147153614
543.64518773639372,-0.01038989783625599
543.69498817678891,-0.010243718400372082
543.74478861718399,-0.010130989317695849
543.79458905757906,-0.010054921066419475
543.84438949797413,-0.010018724124737588
543.89418993836921,-0.010025608970843369
543.94399037876428,-0.010078786082929558
