energy,intensity
444.99817677254049,-0.0010089643867352144
445.01814455937176,-0.00098315950322281492
445.03811234620298,-0.00095760317032451622
445.05808013303425,-0.00093229441446976424
445.07804791986553,-0.0009072322620881923
445.09801570669674,-0.00088241573960948574
445.11798349352802,-0.00085784387346306626
445.13795128035929,-0.00083351569007860532
445.15791906719051,-0.00080943021588575706
445.17788685402178,-0.00078558647731395356
445.19785464085305,-0.00076198350079285937
445.21782242768433,-0.00073862031275206963
445.23779021451554,-0.00071549593962120725
445.25775800134682,-0.00069260940782974942
445.27772578817809,-0.00066995974380733639
445.2976935750093,-0.00064754597398361882
445.31766136184058,-0.00062536712478806003
445.33762914867185,-0.00060342222265030374
445.35759693550307,-0.0005817102940000006
445.37756472233434,-0.0005602303652666122
445.39753250916561,-0.00053898146287977011
445.41750029599683,-0.00051796261326914755
445.4374680828281,-0.00049717284286418528
445.45743586965938,-0.00047661117809453743
445.47740365649059,-0.00045627664538985639
445.49737144332187,-0.0004361682711795916
445.51733923015314,-0.00041628508189339372
445.53730701698441,-0.00039662610396086137
445.55727480381563,-0.00037719036381162092
445.5772425906469,-0.00035797688787514437
445.59721037747818,-0.0003389847025810893
445.61717816430939,-0.00032021283435907689
445.63714595114067,-0.00030166030963858607
445.65711373797194,-0.00028332615484926577
445.67708152480316,-0.00026520939642074928
445.69704931163443,-0.00024730906078251728
445.7170170984657,-0.00022962417436420655
445.73698488529692,-0.00021215376359545041
445.75695267212819,-0.00019489685490573297
445.77692045895947,-0.00017785247472469276
445.79688824579068,-0.00016101964948196483
445.81685603262196,-0.00014439740560703331
445.83682381945323,-0.0001279847695295367
445.8567916062845,-0.00011178076767905457
445.87675939311572,-9.5784426485218468e-05
445.89672717994699,-7.9994772377524684e-05
445.91669496677827,-6.4410831785608261e-05
445.93666275360948,-4.9031631139081697e-05
445.95663054044076,-3.3856196867460345e-05
445.97659832727203,-1.888355540037405e-05
445.99656611410325,-4.1127331674387785e-06
446.01653390093452,1.0457243401845728e-05
446.03650168776579,2.4827347877844422e-05
446.05646947459701,3.8998553830937865e-05
446.07643726142828,5.297183483161938e-05
446.09640504825956,6.6748164450253916e-05
446.11637283509077,8.0328516257227242e-05
446.13634062192205,9.3713863823036148e-05
446.15630840875332,0.00010690518071804905
446.17627619558459,0.00011990344051268816
446.19624398241581,0.00013270961677731667
446.21621176924708,0.00014532468308243833
446.23617955607835,0.00015774961299842676
446.25614734290957,0.00016998538009565557
446.27611512974084,0.00018203295794461984
446.29608291657212,0.00019389332011569491
446.31605070340333,0.00020556744017925614
446.33601849023461,0.00021705629170579686
446.35598627706588,0.00022836084826568983
446.3759540638971,0.0002394820834293182
446.39592185072837,0.0002504209707671649
446.41588963755964,0.00026117848384961829
446.43585742439086,0.00027175559624704939
446.45582521122213,0.00028215328152993678
446.47579299805341,0.00029237251326867664
446.49576078488468,0.00030241426503366253
446.5157285717159,0.00031227951039530886
446.53569635854717,0.00032196922292406643
446.55566414537844,0.00033148437619032536
446.57563193220966,0.00034082594376447489
446.59559971904093,0.00034999489921699704
446.61556750587221,0.00035899221611824985
446.63553529270342,0.00036781886803864683
446.6555030795347,0.00037647582854865788
446.67547086636597,0.00038496407121864883
446.69543865319719,0.00039328456961903232
446.71540644002846,0.00040143829732025571
446.73537422685973,0.00040942622789271691
446.75534201369095,0.0004172493349068121
446.77530980052222,0.00042490859193299469
446.7952775873535,0.00043240497254166087
446.81524537418471,0.00043973945030320073
446.83521316101599,0.00044691299878807118
446.85518094784726,0.00045392659156667532
446.87514873467853,0.000460781202209418
446.89511652150975,0.00046747780428669887
446.91508430834102,0.00047401737136896962
446.9350520951723,0.00048040087702662555
446.95501988200351,0.00048662929483006285
446.97498766883479,0.00049270359834974317
446.99495545566606,0.00049862476115604534
447.01492324249728,0.00050439375681937985
447.03489102932855,0.00051001155891018972
447.05485881615982,0.00051547914099888022
447.07482660299104,0.00052079747665583973
447.09479438982231,0.00052596753945152383
447.11476217665358,0.00053099030295632394
447.1347299634848,0.0005358667407406475
447.15469775031607,0.00054059782637493796
447.17466553714735,0.00054518453342958847
447.19463332397862,0.00054962783547502034
447.21460111080984,0.0005539287060816328
447.23456889764111,0.0005580881188198706
447.25453668447238,0.00056210704726013076
447.2745044713036,0.00056598646497282032
447.29447225813487,0.00056972734552837448
447.31444004496615,0.00057333066249719549
447.33440783179736,0.00057679738944969145
447.35437561862864,0.00058012849995629713
447.37434340545991,0.00058332496758741153
447.39431119229113,0.00058638776591345338
447.4142789791224,0.00058931786850484487
447.43424676595367,0.00059211624893199216
447.45421455278489,0.00059478388076530594
447.47418233961616,0.00059732173757521558
447.49415012644744,0.00059973079293212483
447.51411791327871,0.00060201202040645091
447.53408570010993,0.00060416639356861406
447.5540534869412,0.00060619488598902011
447.57402127377247,0.00060809847123809212
447.59398906060369,0.00060987812288623255
447.61395684743496,0.0006115348145038751
447.63392463426624,0.00061306951966142147
447.65389242109745,0.00061448321192928812
447.67386020792873,0.00061577686487789658
447.69382799476,0.0006169514520776516
447.71379578159122,0.00061800794709897266
447.73376356842249,0.00061894732351227763
447.75373135525376,0.00061977055488797927
447.77369914208498,0.00062047861479648948
447.79366692891625,0.00062107247680822535
447.81363471574753,0.00062155311449360617
447.8336025025788,0.00062192150142304013
447.85357028941002,0.00062217861116694445
447.87353807624129,0.00062232541729573482
447.89350586307256,0.00062236289337982455
447.91347364990378,0.00062229201298963095
447.93344143673505,0.0006221137496955669
447.95340922356633,0.00062182907706804342
447.97337701039754,0.00062143896867748792
447.99334479722881,0.00062094439809430514
448.01331258406009,0.00062034633888890535
448.0332803708913,0.0006196457646317152
448.05324815772258,0.00061884364889314646
448.07321594455385,0.00061794096524360963
448.09318373138507,0.00061693868725351943
448.11315151821634,0.00061583778849329674
448.13311930504761,0.00061463924253335044
448.15308709187889,0.00061334402294409675
448.1730548787101,0.00061195310329595787
448.19302266554138,0.00061046745715933812
448.21299045237265,0.00060888805810465252
448.23295823920387,0.00060721587970232469
448.25292602603514,0.0006054518955227636
448.27289381286641,0.00060359707913638591
448.29286159969763,0.00060165240411361328
448.3128293865289,0.00059961884402484318
448.33279717336018,0.00059749737244049923
448.35276496019139,0.00059528896293100948
448.37273274702267,0.00059299458906676619
448.39270053385394,0.00059061522441819937
448.41266832068516,0.00058815184255572059
448.43263610751643,0.00058560541704974251
448.4526038943477,0.00058297692147068017
448.47257168117892,0.00058026732938895294
448.49253946801019,0.00057747761437496568
448.51250725484147,0.00057460874999914384
448.53247504167274,0.00057166170983189357
448.55244282850396,0.0005686374674436453
448.57241061533523,0.00056553699640479369
448.5923784021665,0.00056236127028576159
448.61234618899772,0.00055911126265697554
448.63231397582899,0.00055578794708883062
448.65228176266027,0.00055239229715175336
448.67224954949148,0.00054892528641616489
448.69221733632276,0.00054538788845246182
448.71218512315403,0.00054178107683106763
448.73215290998525,0.00053810582512240973
448.75212069681652,0.00053436310689688148
448.77208848364779,0.00053055389572490962
448.79205627047901,0.0005266791651769142
448.81202405731028,0.00052273988882329658
448.83199184414156,0.00051873704023447636
448.85195963097283,0.00051467159298086923
448.87192741780405,0.0005105445206329026
448.89189520463532,0.00050635679676096831
448.91186299146659,0.00050210939493549418
448.93183077829781,0.00049780328872690545
448.95179856512908,0.00049343945170559527
448.97176635196035,0.00048901885744198495
448.99173413879157,0.00048454247950650755
449.01170192562284,0.00048001129146955099
449.03166971245412,0.00047542626690154095
449.05163749928533,0.00047078837937290612
449.07160528611661,0.00046609860245403834
449.09157307294788,0.00046135790971536502
449.1115408597791,0.00045656727472730965
449.13150864661037,0.00045172767106026494
449.15147643344164,0.00044684007228465439
449.17144422027292,0.00044190545197089976
449.19141200710413,0.00043692478368942281
449.21137979393541,0.00043189904101061452
449.23134758076668,0.00042682919750490402
449.2513153675979,0.00042171622674271741
449.27128315442917,0.00041656110229444611
449.29125094126044,0.00041136479773051663
449.31121872809166,0.00040612828662135681
449.33118651492293,0.00040085254253735157
449.35115430175421,0.00039553853904893523
449.37112208858542,0.00039018724972653303
449.3910898754167,0.00038479964814053334
449.41105766224797,0.00037937670786136269
449.43102544907919,0.00037391940245945455
449.45099323591046,0.00036842870550518776
449.47096102274173,0.00036290559056899882
449.49092880957301,0.00035735103122129996
449.51089659640422,0.00035176600103252204
449.5308643832355,0.0003461514735730478
449.55083217006677,0.00034050842241330941
449.57079995689799,0.00033483782112373774
449.59076774372926,0.00032914064327471118
449.61073553056053,0.00032341786243666537
449.63070331739175,0.00031767045218003076
449.65067110422302,0.00031189938607519008
449.6706388910543,0.00030610563769256898
449.69060667788551,0.00030029018060260615
449.71057446471679,0.00029445398837568172
449.73054225154806,0.00028859803458222612
449.75051003837928,0.00028272329279266893
449.77047782521055,0.00027683073657739201
449.79044561204182,0.00027092133950683316
449.8104133988731,0.00026499607515139767
449.83038118570431,0.00025905591708152379
449.85034897253558,0.00025310183886759294
449.87031675936686,0.0002471348140800334
449.89028454619807,0.00024115581628927603
449.91025233302935,0.0002351658190657066
449.93022011986062,0.00022916579597975382
449.95018790669184,0.00022315672060185419
449.97015569352311,0.000217139566502377
449.99012348035438,0.00021111530725176873
450.0100912671856,0.00020508491642044985
450.03005905401687,0.00019904936757880872
450.05002684084815,0.00019300963429727362
450.06999462767936,0.00018696669014627541
450.08996241451064,0.00018092150869619726
450.10993020134191,0.00017487506351747091
450.12989798817318,0.00016882832818051205
450.1498657750044,0.00016278227625574808
450.16983356183567,0.00015673788131356347
450.18980134866695,0.00015069611692438908
450.20976913549816,0.000144657956658661
450.22973692232944,0.00013862437408675632
450.24970470916071,0.00013259634277910329
450.26967249599193,0.00012657483630613888
450.2896402828232,0.00012056082823824277
450.30960806965447,0.00011455529214584714
450.32957585648569,0.00010855920159938371
450.34954364331696,0.00010257353016923263
450.36951143014824,9.6599251425823034e-05
450.38947921697945,9.0637338939592721e-05
450.40944700381073,8.4688766280921392e-05
450.429414790642,7.8754507020236449e-05
450.44938257747322,7.2835534727975701e-05
450.46935036430449,6.6932822974513206e-05
450.48931815113576,6.104734533028764e-05
450.50928593796704,5.5180075365709059e-05
450.52925372479825,4.9331986651208765e-05
450.54922151162953,4.3504052757172961e-05
450.5691892984608,3.769724725403165e-05
450.58915708529202,3.1912543712213533e-05
450.60912487212329,2.6150915702100042e-05
450.62909265895456,2.0413336794127684e-05
450.64906044578578,1.4700780558724296e-05
450.66902823261705,9.0142205662704401e-06
450.68899601944833,3.3546303872008902e-06
450.70896380627954,-2.2770164080578199e-06
450.72893159311081,-7.8797462491190552e-06
450.74889937994209,-1.3452585565551078e-05
450.7688671667733,-1.8994560786926053e-05
450.78883495360458,-2.4504698342859513e-05
450.80880274043585,-2.9982024662923625e-05
450.82877052726712,-3.5425566176698359e-05
450.84873831409834,-4.0834349313757182e-05
450.86870610092961,-4.6207400503715627e-05
450.88867388776089,-5.1543746176141089e-05
450.9086416745921,-5.6842412760607034e-05
450.92860946142338,-6.2102426686724659e-05
450.94857724825465,-6.7322814384070031e-05
450.96854503508587,-7.2502602282204908e-05
450.98851282191714,-7.7640816810751762e-05
451.00848060874841,-8.2736484399279723e-05
451.02844839557963,-8.778863147735445e-05
451.0484161824109,-9.2796284474594079e-05
451.06838396924218,-9.7758469820570775e-05
451.08835175607339,-0.00010267421394485063
451.10831954290467,-0.00010754254327705092
451.12828732973594,-0.00011236248424674076
451.14825511656721,-0.00011713306328350751
451.16822290339843,-0.00012185330681691942
451.1881906902297,-0.00012652224127659073
451.20815847706098,-0.0001311388930920936
451.22812626389219,-0.00013570228869299802
451.24809405072347,-0.00014021145450891868
451.26806183755474,-0.00014466541696942382
451.28802962438596,-0.00014906320250408734
451.30799741121723,-0.00015340383754251828
451.3279651980485,-0.00015768634851429401
451.34793298487972,-0.00016190976184898192
451.36790077171099,-0.00016607310397619493
451.38786855854227,-0.00017017540132550349
451.40783634537348,-0.00017421568032648322
451.42780413220476,-0.00017819296740874098
451.44777191903603,-0.00018210628900185112
451.4677397058673,-0.0001859546715353988
451.48770749269852,-0.00018973714143895835
451.50767527952979,-0.00019345272514213578
451.52764306636107,-0.00019710044907450585
451.54761085319228,-0.00020067933966564505
451.56757864002356,-0.00020418842334515375
451.58754642685483,-0.00020762672654261452
451.60751421368604,-0.00021099327568759648
451.62748200051732,-0.00021428709720970867
451.64744978734859,-0.00021750721753852238
451.66741757417981,-0.00022065266310361455
451.68738536101108,-0.00022372246033459291
451.70735314784235,-0.00022671563566102875
451.72732093467357,-0.00022963121551249945
451.74728872150484,-0.00023246822631860882
451.76725650833612,-0.00023522569450893033
451.78722429516733,-0.00023790264651304483
451.80719208199861,-0.00024049810876055136
451.82715986882988,-0.0002430111076810286
451.84712765566115,-0.00024544066970405825
451.86709544249237,-0.00024778582125922332
451.88706322932364,-0.00025004558877611896
451.90703101615492,-0.00025221899868432471
451.92699880298613,-0.00025430507741341837
451.94696658981741,-0.00025630285139300072
451.96693437664868,-0.00025821134705264698
451.9869021634799,-0.00026002959082193971
452.00686995031117,-0.0002617566091304719
452.02683773714244,-0.00026339142840782655
452.04680552397366,-0.00026493307508358103
452.06677331080493,-0.00026638057558733309
452.08674109763621,-0.00026773295634866141
452.10670888446742,-0.00026898924379714639
452.1266766712987,-0.00027014846436238058
452.14664445812997,-0.00027120964447394742
452.16661224496124,-0.00027217181056143121
452.18658003179246,-0.00027303398905441367
452.20654781862373,-0.00027379520638248604
452.22651560545501,-0.00027445448897523176
452.24648339228622,-0.00027501086326223211
452.2664511791175,-0.00027546335567307616
452.28641896594877,-0.00027581099263734735
452.30638675277999,-0.00027605280058462999
452.32635453961126,-0.0002761878059445123
452.34632232644253,-0.00027621503514657728
452.36629011327375,-0.00027613351462041098
452.38625790010502,-0.00027594227079559639
452.4062256869363,-0.0002756403301017213
452.42619347376751,-0.00027522671896836916
452.44616126059879,-0.00027470046382512599
452.46612904743006,-0.00027406059110157525
452.48609683426133,-0.00027330612722730385
452.50606462109255,-0.00027243609863189782
452.52603240792382,-0.00027144953174493974
452.54600019475509,-0.00027034545299601523
452.56596798158631,-0.00026912288881471465
452.58593576841758,-0.00026778086563061278
452.60590355524886,-0.00026631840987330129
452.62587134208007,-0.00026473454797236798
452.64583912891135,-0.0002630283063573928
452.66580691574262,-0.00026119871145796007
452.68577470257384,-0.00025924478970366341
452.70574248940511,-0.00025716556752407673
452.72571027623638,-0.0002549600713487902
452.7456780630676,-0.00025262732760739613
452.76564584989887,-0.00025016636272946584
452.78561363673015,-0.00024757620314459078
452.80558142356142,-0.00024485587528235591
452.82554921039264,-0.00024200440557235595
452.84551699722391,-0.00023902082044415852
452.86548478405518,-0.00023590414632735724
452.8854525708864,-0.00023265340965154683
452.90542035771767,-0.00022926763684629208
452.92538814454895,-0.00022574585434119139
452.94535593138016,-0.00022208708856583602
452.96532371821144,-0.00021829036594979336
452.98529150504271,-0.00021435471292265531
453.00525929187393,-0.00021027915591402308
453.0252270787052,-0.0002060627213534554
453.04519486553647,-0.00020170443567054937
453.06516265236769,-0.00019720332529490491
453.08513043919896,-0.00019255841665607987
453.10509822603024,-0.00018776873618367267
453.12506601286145,-0.00018283331030728212
453.14503379969273,-0.00017775116545646502
453.165001586524,-0.00017252132806082126
453.18496937335527,-0.00016714282454993561
453.20493716018649,-0.0001616146813534084
453.22490494701776,-0.00015593592490079468
453.24487273384904,-0.00015010558162169372
453.26484052068025,-0.00014412267794570955
453.28480830751153,-0.00013798624030239288
453.3047760943428,-0.00013169529512134276
453.32474388117402,-0.00012524886883216626
453.34471166800529,-0.0001186459878644104
453.36467945483656,-0.00011188567864767922
453.38464724166778,-0.00010496696761157611
453.40461502849905,-9.7888881185649807e-05
453.42458281533033,-9.0650445799501543e-05
453.4445506021616,-8.3250687882718659e-05
453.46451838899281,-7.5688633864906714e-05
453.48448617582409,-6.796331017560925e-05
453.50445396265536,-6.0073743244431609e-05
453.52442174948658,-5.2018959500981518e-05
453.54438953631785,-4.3797985374799484e-05
453.56435732314912,-3.54098472954928e-05
453.58432510998034,-2.6853571692671361e-05
453.60429289681161,-1.8128184995871337e-05
453.62426068364289,-9.2327136347017565e-06
453.6442284704741,-1.6618403877511657e-07
453.66419625730538,9.0723773623765328e-06
453.68416404413665,1.8483944139142212e-05
453.70413183096787,2.8069489861908773e-05
453.72409961779914,3.7829988101145684e-05
453.74406740463041,4.7766412427242182e-05
453.76403519146163,5.7879736410582517e-05
453.7840029782929,6.8170933621638759e-05
453.80397076512418,7.8640977630798628e-05
453.82393855195545,8.929084200847673e-05
453.84390633878667,0.00010012150032505645
453.86387412561794,0.00011113392615101419
453.88384191244921,0.00012232909305673464
453.90380969928043,0.00013370797461259966
453.9237774861117,0.00014527154438908935
453.94374527294298,0.00015702077595658665
453.96371305977419,0.00016895664288547147
453.98368084660547,0.00018108011874622696
454.00364863343674,0.00019339217710923463
454.02361642026796,0.00020589379154487214
454.04358420709923,0.00021858593562362684
454.0635519939305,0.00023146958291587864
454.08351978076172,0.00024454570699200366
454.10348756759299,0.00025781528142249251
454.12345535442427,0.00027127927977772207
454.14342314125554,0.0002849386756281077
454.16339092808676,0.00029879444254402433
454.18335871491803,0.0003128475540959655
454.2033265017493,0.00032709898385430744
454.22329428858052,0.00034154970538942376
454.24326207541179,0.00035620069227181115
454.26322986224307,0.00037105291807184356
454.28319764907428,0.0003861073563598931
454.30316543590556,0.00040136498070646057
454.32313322273683,0.00041682676468191753
454.34310100956804,0.00043249368185663338
454.36306879639932,0.00044836670580111391
454.38303658323059,0.00046444681008572829
454.40300437006181,0.0004807349682808468
454.42297215689308,0.00049723215395697413
