energy,intensity
629.00933975839894,-0.00068350183615767759
629.03832587371608,-0.00064924572153941514
629.06731198903333,-0.00061567394382917786
629.09629810435047,-0.00058278117411437265
629.12528421966761,-0.00055056208348201036
629.15427033498486,-0.00051901134301911137
629.183256450302,-0.00048812362381306715
629.21224256561914,-0.00045789359695089579
629.24122868093639,-0.00042831593351962637
629.27021479625353,-0.00039938530460663401
629.29920091157078,-0.00037109638129883567
629.32818702688792,-0.00034344383468359635
629.35717314220506,-0.00031642233584794723
629.38615925752231,-0.00029002655587892989
629.41514537283945,-0.00026425116586389463
629.44413148815659,-0.00023909083688987998
629.47311760347384,-0.00021454024004393486
629.50210371879098,-0.00019059404641339471
629.53108983410812,-0.00016724692708530598
629.56007594942537,-0.000144493553146724
629.58906206474251,-0.0001223285956849704
629.61804818005965,-0.0001007467257870985
629.6470342953769,-7.974261454017066e-05
629.67602041069404,-5.9310933031494994e-05
629.70500652601118,-3.944635234813142e-05
629.73399264132843,-2.0143543577148632e-05
629.76297875664557,-1.3971778058418078e-06
629.7919648719627,1.6798073878722276e-05
629.82095098727996,3.4447540389468705e-05
629.8499371025971,5.1556550639115134e-05
629.87892321791435,6.8130433540652773e-05
629.90790933323149,8.4174518006807856e-05
629.93689544854863,9.9694132950502873e-05
629.96588156386588,0.00011469460728465256
629.99486767918302,0.00012918126992199521
630.02385379450016,0.00014315944977544772
630.05283990981741,0.00015663447575791828
630.08182602513455,0.00016961167678215754
630.11081214045169,0.00018209638176107607
630.13979825576894,0.00019409391960757661
630.16878437108608,0.00020560961923442122
630.19777048640321,0.00021664880955451466
630.22675660172047,0.0002272168194807539
630.25574271703761,0.0002373189779259127
630.28472883235474,0.00024696061380288976
630.313714947672,0.00025614705602457666
630.34270106298914,0.00026488363350375834
630.37168717830639,0.00027317567515335956
630.40067329362353,0.00028102850988617159
630.42965940894067,0.00028844746661508489
630.45864552425792,0.00029543787425298219
630.48763163957506,0.00030200506171266508
630.5166177548922,0.00030815435790701868
630.54560387020945,0.00031389109174892091
630.57458998552659,0.00031922059215118366
630.60357610084372,0.00032414818802668625
630.63256221616098,0.00032867920828830285
630.66154833147812,0.00033281898184885355
630.69053444679525,0.00033657283762121435
630.71952056211251,0.00033994610451825369
630.74850667742965,0.00034294411145280182
630.77749279274678,0.00034557218733772909
630.80647890806404,0.00034783566108590055
630.83546502338118,0.00034973986161015438
630.86445113869831,0.00035129011782335739
630.89343725401557,0.00035249175863836938
630.92242336933271,0.00035335011296803824
630.95140948464996,0.00035387050972522649
630.9803955999671,0.00035405827782278705
631.00938171528423,0.00035391874617357941
631.03836783060149,0.00035345724369045687
631.06735394591863,0.00035267909928627988
631.09634006123576,0.00035158964187390464
631.12532617655302,0.00035019420036618031
631.15431229187016,0.00034849810367597501
631.18329840718729,0.00034650668071614036
631.21228452250455,0.00034422526039952327
631.24127063782169,0.00034165917163899806
631.27025675313882,0.00033881374334741328
631.29924286845608,0.00033569430443761226
631.32822898377322,0.00033230618382247611
631.35721509909035,0.00032865471041484951
631.38620121440761,0.00032474521312757351
631.41518732972474,0.00032058302087353504
631.444173445042,0.00031617346256555834
631.47315956035914,0.00031152186711653416
631.50214567567627,0.00030663356343930211
631.53113179099353,0.00030151388044669862
631.56011790631067,0.00029616814705161982
631.5891040216278,0.00029060169216690336
631.61809013694506,0.0002848198447053821
631.6470762522622,0.00027882793357995769
631.67606236757933,0.00027263128770346534
631.70504848289659,0.00026623523598873536
631.73403459821373,0.00025964510734867452
631.76302071353086,0.00025286623069611415
631.79200682884812,0.00024590393494388458
631.82099294416525,0.00023876354900489601
631.84997905948239,0.00023145040179197723
631.87896517479965,0.00022396982221795694
631.90795129011678,0.00021632713919574853
631.93693740543404,0.00020852768163815005
631.96592352075118,0.00020057677845807835
631.99490963606831,0.00019247975856835967
632.02389575138557,0.00018424195088181846
632.05288186670271,0.00017586868431137496
632.08186798201984,0.00016736528776985509
632.1108540973371,0.00015873709017008044
632.13984021265424,0.0001499894204249747
632.16882632797137,0.00014112760744736198
632.19781244328863,0.00013215698015006208
632.22679855860576,0.00012308286744600275
632.2557846739229,0.00011391059824800568
632.28477078924016,0.00010464550146889028
632.31375690455729,9.5292906021586093e-05
632.34274301987443,8.5858140818913513e-05
632.37172913519169,7.6346534773691561e-05
632.40071525050882,6.6763416798851168e-05
632.42970136582596,5.7114115807211974e-05
632.45868748114322,4.7403960711592399e-05
632.48767359646035,3.7638280424924487e-05
632.51665971177761,2.7822403859989036e-05
632.54564582709475,1.7961659929719093e-05
632.57463194241188,8.0613775469327528e-06
632.60361805772914,-1.873114375552595e-06
632.63260417304627,-1.1836486924802087e-05
632.66159028836341,-2.1823411187997901e-05
632.69057640368067,-3.1828558252323838e-05
632.7195625189978,-4.1846599204843735e-05
632.74854863431494,-5.1872205132741096e-05
632.7775347496322,-6.1900047123198397e-05
632.80652086494933,-7.1924796263280149e-05
632.83550698026647,-8.194112364016986e-05
632.86449309558373,-9.1943700341049785e-05
632.89347921090086,-0.00010192719745298482
632.922465326218,-0.00011188628606315803
632.95145144153526,-0.00012181563725875152
632.98043755685239,-0.00013170992212683066
633.00942367216953,-0.0001415638117545788
633.03840978748678,-0.000151371977229177
633.06739590280392,-0.00016112908963769216
633.09638201812118,-0.00017082982006734384
633.12536813343831,-0.00018046883960519964
633.15435424875545,-0.00019004081933844138
633.18334036407271,-0.00019954043035424985
633.21232647938984,-0.00020896234373969327
633.24131259470698,-0.00021830123058195333
633.27029871002424,-0.00022755176196820873
633.29928482534137,-0.00023670860898553152
633.32827094065851,-0.00024576644272110047
633.35725705597577,-0.00025471993426209448
633.3862431712929,-0.00026356375469558692
633.41522928661004,-0.0002722925751087565
633.44421540192729,-0.00028090106658878029
633.47320151724443,-0.00028938390022273424
633.50218763256157,-0.00029773574709779523
633.53117374787882,-0.00030595127830113946
633.56015986319596,-0.00031402516491984612
633.58914597851322,-0.00032195207804112079
633.61813209383035,-0.00032972668875204609
633.64711820914749,-0.00033734366813979657
633.67610432446475,-0.00034479768729154365
633.70509043978188,-0.0003520834172943731
633.73407655509902,-0.00035919552923545806
633.76306267041628,-0.00036612869420196866
633.79204878573341,-0.00037287758328099401
633.82103490105055,-0.00037943686755970542
633.8500210163678,-0.00038580121812527041
633.87900713168494,-0.00039196530606478276
633.90799324700208,-0.00039792380246541129
633.93697936231933,-0.00040367137841432188
633.96596547763647,-0.00040920270499861244
633.99495159295361,-0.00041451245330544994
634.02393770827086,-0.0004195952944219968
634.052923823588,-0.00042444589943535667
634.08190993890526,-0.00042905893943271148
634.11089605422239,-0.00043342908550116836
634.13988216953953,-0.00043755100872788918
634.16886828485679,-0.00044141938020003213
634.19785440017392,-0.00044502887100471083
634.22684051549106,-0.00044837415222908294
634.25582663080831,-0.00045144989496030544
634.28481274612545,-0.0004542507702854962
634.31379886144259,-0.00045677144929181254
634.34278497675984,-0.00045900660306640484
634.37177109207698,-0.00046095090269639984
634.40075720739412,-0.00046259901926894989
634.42974332271137,-0.00046394562387120329
634.45872943802851,-0.00046498538759029407
634.48771555334565,-0.00046571298151336967
634.5167016686629,-0.00046612307672757539
634.54568778398004,-0.00046621034432005239
634.57467389929718,-0.00046596945537794455
634.60366001461443,-0.0004653950809883939
634.63264612993157,-0.00046448189223854833
634.66163224524882,-0.00046322456021554315
634.69061836056596,-0.0004616177560065332
634.7196044758831,-0.0004596561506986555
634.74859059120035,-0.00045733441537904615
634.77757670651749,-0.00045464722113486571
634.80656282183463,-0.0004515892390532484
634.83554893715188,-0.000448155140221325
634.86453505246902,-0.00044433959572626452
634.89352116778616,-0.00044013727665519913
634.92250728310341,-0.00043554285409525277
634.95149339842055,-0.00043055099913360487
634.98047951373769,-0.00042515638285738197
635.00946562905494,-0.00041935367635370386
635.03845174437208,-0.00041313755070975953
635.06743785968922,-0.00040650267701267009
635.09642397500647,-0.00039944372634955058
635.12541009032361,-0.00039195536980760125
635.15439620564086,-0.00038403227847390461
635.183382320958,-0.00037566912343566807
635.21236843627514,-0.00036686057578000386
635.24135455159239,-0.00035760130659401876
635.27034066690953,-0.00034788598696492887
635.29932678222667,-0.00033770928797984185
635.32831289754392,-0.00032706588072585843
635.35729901286106,-0.00031595043629020596
635.3862851281782,-0.00030435762575998734
635.41527124349545,-0.00029228212022229701
635.44425735881259,-0.00027971859076437382
635.47324347412973,-0.00026666170847331524
635.50222958944698,-0.00025310614443620856
635.53121570476412,-0.00023904656974030585
635.56020182008126,-0.00022447765547269722
635.58918793539851,-0.0002093940727204667
635.61817405071565,-0.00019379049257087504
635.64716016603279,-0.00017766158611100843
635.67614628135004,-0.00016100202442794333
635.70513239666718,-0.000143806478608955
635.73411851198443,-0.0001260696197410505
635.76310462730157,-0.00010778611891151379
635.79209074261871,-8.8950647207419135e-05
635.82107685793596,-6.9557875715833004e-05
635.8500629732531,-4.9602475524050844e-05
635.87904908857024,-2.9079117719141507e-05
635.90803520388749,-7.9824733881640828e-06
635.93702131920463,1.3692786381571667e-05
635.96600743452177,3.5951990503004915e-05
635.99499354983902,5.8800467889081991e-05
636.02397966515616,8.224354745248099e-05
636.0529657804733,0.00010628655810614607
636.08195189579055,0.00013093482876303246
636.11093801110769,0.00015619368833580264
636.13992412642483,0.00018206846573740943
636.16891024174208,0.00020856448988081349
636.19789635705922,0.00023568708967866407
636.22688247237647,0.00026344159404403044
636.25586858769361,0.00029183333188955145
636.28485470301075,0.00032086763212819166
636.313840818328,0.0003505498236729234
636.34282693364514,0.00038088523543637317
636.37181304896228,0.00041187919633151049
636.40079916427953,0.00044353703527131813
636.42978527959667,0.00047586408116840478
636.45877139491381,0.00050886566293574932
636.48775751023106,0.00054254710948634143
636.5167436255482,0.00057691374973277377
636.54572974086534,0.00061197091258803301
636.57471585618259,0.00064772392696511817
636.60370197149973,0.00068417812177660477
636.63268808681687,0.00072133882593548816
636.66167420213412,0.00075921136835477515
636.69066031745126,0.00079780107794702546
636.7196464327684,0.00083711328362524201
636.74863254808565,0.00087715331430244007
636.77761866340279,0.00091792649889116244
636.80660477872004,0.00095943816630458529
636.83559089403718,0.0010016936454552391
636.86457700935432,0.0010446982652561419
636.89356312467157,0.0010884573546203241
636.92254923998871,0.0011329762424602974
636.95153535530585,0.0011782602576890905
636.9805214706231,0.0012243147292197412
637.00950758594024,0.0012711449859647433
637.03849370125738,0.0013187563568371351
637.06747981657463,0.0013671541707499617
637.09646593189177,0.0014163437566157028
637.12545204720891,0.0014663304433474012
637.15443816252616,0.0015171195598581147
637.1834242778433,0.0015687164350603015
637.21241039316044,0.0016211263978670161
637.24139650847769,0.0016743547771913248
637.27038262379483,0.0017284069019456671
637.29936873911208,0.0017832881010433231
637.32835485442922,0.0018390037033967188
637.35734096974636,0.0018955590379189245
637.38632708506361,0.0019529594335230243
637.41531320038075,0.002011253263557737
637.44429931569789,0.0020708455566825386
637.47328543101514,0.0021323176246032878
637.50227154633228,0.002196252030077726
637.53125766164942,0.0022632313358643165
637.56024377696667,0.002333838104721566
637.58922989228381,0.0024086548994071521
637.61821600760095,0.0024882642826795638
637.6472021229182,0.0025732488172973732
637.67618823823534,0.0026641910660181395
637.70517435355248,0.0027616735916004094
637.73416046886973,0.0028662789568028326
637.76314658418687,0.0029785897243828157
637.79213269950401,0.0030991884570989786
637.82111881482126,0.0032286577177100713
637.8501049301384,0.0033675800689733056
637.87909104545565,0.0035165380736480009
637.90807716077279,0.0036761142944912143
637.93706327608993,0.0038468912942617359
637.96604939140718,0.0040294516357185289
637.99503550672432,0.0042243778816183882
638.02402162204146,0.0044322525947202308
638.05300773735871,0.0046536583377831779
638.08199385267585,0.0048891776735637184
638.11097996799299,0.0051393931648209181
638.13996608331024,0.0054048873743140751
638.16895219862738,0.0056862428647993304
638.19793831394452,0.0059840421990359225
638.22692442926177,0.0062988679397833437
638.25591054457891,0.0066313026497973517
638.28489665989605,0.0069819288918373714
638.3138827752133,0.0073514844360011503
638.34286889053044,0.0077425645239554393
638.37185500584769,0.0081589885142219973
638.40084112116483,0.0086045973558895924
638.42982723648197,0.0090832319980518276
638.45881335179922,0.0095987333898028254
638.48779946711636,0.010154942480230576
638.5167855824335,0.010755700218429049
638.54577169775075,0.011404847553492917
638.57475781306789,0.012106225434509118
638.60374392838503,0.012863674810572122
638.63273004370228,0.013681036630777289
638.66171615901942,0.014562151844210232
638.69070227433656,0.015510861399966065
638.71968838965381,0.016531006247140954
638.74867450497095,0.017626427334818937
638.77766062028809,0.018800965612095884
638.80664673560534,0.020058462028068932
638.83563285092248,0.021402757531820242
638.86461896623973,0.022837693072452418
638.89360508155687,0.024367109599046234
638.92259119687401,0.025994848060699162
638.95157731219126,0.027724749406510228
638.9805634275084,0.029560654585557879
639.00954954282554,0.031506404546940731
639.03853565814279,0.033565840239759101
639.06752177345993,0.035742802613088882
639.09650788877707,0.038041132616029941
639.12549400409432,0.040464671197684057
639.15448011941146,0.043017259307124252
639.1834662347286,0.045702737893451813
639.21245235004585,0.048525700801040905
639.24143846536299,0.051509208056094706
639.27042458068013,0.05469544804908049
639.29941069599738,0.058127494553747112
639.32839681131452,0.061848421343802633
639.35738292663166,0.065901302192994851
639.38636904194891,0.070329210875076792
639.41535515726605,0.075175221163748723
639.4443412725833,0.080482406832783848
639.47332738790044,0.086293841655875558
639.50231350321758,0.092651623437100428
639.53129961853483,0.099532282165601699
639.56028573385197,0.10680646812098088
639.58927184916911,0.11433520820019258
639.61825796448636,0.12197952930019541
639.6472440798035,0.12960045831785744
639.67623019512064,0.13705902215013704
639.70521631043789,0.14422109431543387
639.73420242575503,0.15107497068910306
639.76318854107217,0.15773778078156972
639.79217465638942,0.16433278402772669
639.82116077170656,0.17098323986238986
639.8501468870237,0.17781240772045212
639.87913300234095,0.18494354703680935
639.90811911765809,0.19249911764979105
639.93710523297523,0.20056319798648392
639.96609134829248,0.20916532012554789
639.99507746360962,0.21833085783852599
640.02406357892687,0.22807380944781405
640.05304969424401,0.23822990387299378
640.08203580956115,0.24849339570732135
640.1110219248784,0.25856049551314014
640.14000804019554,0.26824906600694143
640.16899415551268,0.2774918733306419
640.19798027082993,0.28622618139822142
640.22696638614707,0.29438925412355776
640.25595250146421,0.30191835542063317
640.28493861678146,0.30875074920341922
640.3139247320986,0.31482369938580912
640.34291084741574,0.32007446988177757
640.37189696273299,0.32444032460528655
640.40088307805013,0.32785852747024818
640.42986919336727,0.33026634239062813
640.45885530868452,0.3316010332803761
640.48784142400166,0.33179986405342798
640.51682753931891,0.33086051186073617
640.54581365463605,0.32903072016870588
640.57479976995319,0.32662292507973695
640.60378588527044,0.32394956278902909
640.63277200058758,0.32132306949181505
640.66175811590472,0.3190558813832951
640.69074423122197,0.31746043465867541
640.71973034653911,0.31684297063588296
640.74871646185625,0.31729757626515931
640.7777025771735,0.31865826923799573
640.80668869249064,0.32074316465020913
640.83567480780778,0.3233703775976316
640.86466092312503,0.32635802317610318
640.89364703844217,0.32952421648291647
640.92263315375931,0.33271174370995787
640.95161926907656,0.33586091669455403
640.9806053843937,0.33893614239554426
641.00959149971095,0.34190182777181566
641.03857761502809,0.3447223797822091
641.06756373034523,0.34736220538559986
641.09654984566248,0.34978571154086091
641.12553596097962,0.35195730520683705
641.15452207629676,0.35384139334240183
641.18350819161401,0.35540238290642456
641.21249430693115,0.35660636116842592
641.24148042224829,0.35750570628673928
641.27046653756554,0.35827880219073671
641.29945265288268,0.35911401474454385
641.32843876819982,0.36019970981229488
641.35742488351707,0.36172425325812801
641.38641099883421,0.3638760109461629
641.41539711415135,0.36684256243429686
641.4443832294686,0.37067439316613648
641.47336934478574,0.37512951155037977
641.50235546010288,0.37992834845002177
641.53134157542013,0.38479133472806365
641.56032769073727,0.38943890124744823
641.58931380605452,0.3935914788711915
641.61829992137166,0.39700087473458273
641.6472860366888,0.39966044553457619
641.67627215200605,0.40167570991331064
641.70525826732319,0.40315280471175524
641.73424438264033,0.40419786677090447
641.76323049795758,0.40491703293174508
641.79221661327472,0.40541644003525684
641.82120272859186,0.40578747626942924
641.85018884390911,0.40604554873501664
641.87917495922625,0.40618166645231013
641.90816107454339,0.40618682706597842
641.93714718986064,0.40605202822068825
641.96613330517778,0.40576826756110823
641.99511942049492,0.40532654273190505
642.02410553581217,0.4047178513777438
642.05309165112931,0.4039331911432964
642.08207776644656,0.40296355967322428
642.1110638817637,0.4017999546122023
642.14004999708084,0.40043337360489456
642.16903611239809,0.39885481429596181
642.19802222771523,0.39705527433008381
642.22700834303237,0.39502575135192214
642.25599445834962,0.39275724300613502
642.28498057366676,0.39024074693740751
642.3139666889839,0.38746816868642248
642.34295280430115,0.38444954789170604
642.37193891961829,0.38121165171391619
642.40092503493543,0.3777818733195592
642.42991115025268,0.37418760587513861
642.45889726556982,0.37045624254720039
642.48788338088696,0.36661517650224834
642.51686949620421,0.36269180090678499
642.54585561152135,0.35871350892735876
642.57484172683849,0.35470769373047223
642.60382784215574,0.35070174848262758
642.63281395747288,0.34672306635037375
642.66180007279013,0.34279904050019783
642.69078618810727,0.33895701984588722
642.71977230342441,0.33521534484454563
642.74875841874166,0.33157243711807766
642.7777445340588,0.32802405085106551
642.80673064937594,0.32456594022804824
642.83571676469319,0.3211938594335666
642.86470288001033,0.31790356265220066
642.89368899532747,0.31469080406849081
642.92267511064472,0.31155133786697842
642.95166122596186,0.30848091823224194
642.980647341279,0.30547529934882239
643.00963345659625,0.30253023540126234
643.03861957191339,0.29964148057413836
643.06760568723053,0.29680478905199237
