energy,intensity
629.00933975839894,-0.00099989386981906418
629.03832587371608,-0.00096663137824371274
629.06731198903333,-0.00093383372564058323
629.09629810435047,-0.00090149819522398079
629.12528421966761,-0.00086962207020782221
629.15427033498486,-0.00083820263380603036
629.183256450302,-0.00080723716923289911
629.21224256561914,-0.00077672295970235045
629.24122868093639,-0.00074665728842831364
629.27021479625353,-0.00071703743862507085
629.29920091157078,-0.00068786069350643727
629.32818702688792,-0.00065912433628668684
629.35717314220506,-0.00063082565017975021
629.38615925752231,-0.00060296191839956728
629.41514537283945,-0.00057553042416040123
629.44413148815659,-0.00054852845067618903
629.47311760347384,-0.00052195328116087434
629.50210371879098,-0.00049580219882871049
629.53108983410812,-0.0004700724868936403
629.56007594942537,-0.00044476142856961145
629.58906206474251,-0.0004198663070708681
629.61804818005965,-0.00039538440561135704
629.6470342953769,-0.00037131300740503141
629.67602041069404,-0.00034764939566612579
629.70500652601118,-0.00032439085360859237
629.73399264132843,-0.00030153466444638713
629.76297875664557,-0.0002790781113937371
629.7919648719627,-0.00025701847766459811
629.82095098727996,-0.000235353046472932
629.8499371025971,-0.00021407910103295511
629.87892321791435,-0.00019319392455854672
629.90790933323149,-0.00017269480026391729
629.93689544854863,-0.00015257901136303206
629.96588156386588,-0.00013284384106985764
629.99486767918302,-0.00011348657259859852
630.02385379450016,-9.4504489163220484e-05
630.05283990981741,-7.589487397769855e-05
630.08182602513455,-5.7655010256225546e-05
630.11081214045169,-3.9782181212774095e-05
630.13979825576894,-2.2273670061321378e-05
630.16878437108608,-5.126760016053067e-06
630.19777048640321,1.1661265709054743e-05
630.22675660172047,2.8093123900019886e-05
630.25574271703761,4.4171531342666664e-05
630.28472883235474,5.9899204823013344e-05
630.313714947672,7.5278861127073423e-05
630.34270106298914,9.0313217040679985e-05
630.37168717830639,0.00010500498934990572
630.40067329362353,0.00011935689484058611
630.42965940894067,0.00013337165029873562
630.45864552425792,0.00014705197251036004
630.48763163957506,0.00016040057826130537
630.5166177548922,0.00017342018433757957
630.54560387020945,0.00018611350752518541
630.57458998552659,0.00019848326460997776
630.60357610084372,0.0002105321723779596
630.63256221616098,0.00022226294761513023
630.66154833147812,0.00023367830710735059
630.69053444679525,0.00024478096764062279
630.71952056211251,0.00025557364600093963
630.74850667742965,0.00026605905897417138
630.77749279274678,0.00027623992334631494
630.80647890806404,0.00028611895590336159
630.83546502338118,0.00029569887343118702
630.86445113869831,0.00030498239271578532
630.89343725401557,0.00031397223054314342
630.92242336933271,0.00032267110369914483
630.95140948464996,0.00033108172896981203
630.9803955999671,0.00033920682314103178
631.00938171528423,0.00034704910299879232
631.03836783060149,0.00035461128532907451
631.06735394591863,0.00036189608691777377
631.09634006123576,0.00036890622455087508
631.12532617655302,0.00037564441501435585
631.15431229187016,0.00038211337509411799
631.18329840718729,0.00038831582157614129
631.21228452250455,0.00039425447124640271
631.24127063782169,0.00039993204089081014
631.27025675313882,0.00040535124729533891
631.29924286845608,0.00041051480724596436
631.32822898377322,0.00041542543752859764
631.35721509909035,0.00042008585492921374
631.38620121440761,0.000424498776233784
631.41518732972474,0.00042866691822822693
631.444173445042,0.00043259299769852957
631.47315956035914,0.00043627973143061348
631.50214567567627,0.00043972983621044727
631.53113179099353,0.00044294602882399901
631.56011790631067,0.00044593102605719524
631.5891040216278,0.00044868754469600436
631.61809013694506,0.0004512183015263876
631.6470762522622,0.00045352601333427975
631.67606236757933,0.0004556133969056454
631.70504848289659,0.00045748316902644395
631.73403459821373,0.00045913804648261441
631.76302071353086,0.00046058074606011661
631.79200682884812,0.00046181398454491298
631.82099294416525,0.00046284047872294362
631.84997905948239,0.00046366294538016753
631.87896517479965,0.00046428410130254288
631.90795129011678,0.00046470666327601593
631.93693740543404,0.00046493334808654456
631.96592352075118,0.00046496687252008096
631.99490963606831,0.00046480995336257839
632.02389575138557,0.00046446530739999191
632.05288186670271,0.00046393565141827312
632.08186798201984,0.00046322370220337977
632.1108540973371,0.00046233217654125902
632.13984021265424,0.00046126379121786982
632.16882632797137,0.0004600212630191656
632.19781244328863,0.000458607308731092
632.22679855860576,0.00045702464513961533
632.2557846739229,0.0004552759890306833
632.28477078924016,0.00045336405719023979
632.31375690455729,0.00045129156640425665
632.34274301987443,0.00044906123345867844
632.37172913519169,0.00044667577513944905
632.40071525050882,0.00044413790823254163
632.42970136582596,0.00044145034952389997
632.45868748114322,0.00043861581579946764
632.48767359646035,0.0004356370238452179
632.51665971177761,0.00043251669044708371
632.54564582709475,0.00042925753239104157
632.57463194241188,0.00042586226646303365
632.60361805772914,0.00042233360944899821
632.63260417304627,0.00041867427813491826
632.66159028836341,0.00041488698930673392
632.69057640368067,0.00041097445975038071
632.7195625189978,0.00040693940625184514
632.74854863431494,0.00040278454559706492
632.7775347496322,0.00039851259457197776
632.80652086494933,0.00039412626996256864
632.83550698026647,0.0003896282885547781
632.86449309558373,0.00038502136713453668
632.89347921090086,0.00038030822248783717
632.922465326218,0.00037549157140061556
632.95145144153526,0.00037057413065880521
632.98043755685239,0.00036555861704839869
633.00942367216953,0.00036044774735532808
633.03840978748678,0.00035524423836552914
633.06739590280392,0.00034995080686499574
633.09638201812118,0.00034457016963964
633.12536813343831,0.00033910504347545774
633.15435424875545,0.00033355814515838148
633.18334036407271,0.0003279321914743409
633.21232647938984,0.00032222989920933681
633.24131259470698,0.0003164539851492976
633.27029871002424,0.00031060716608015794
633.29928482534137,0.00030469215878791236
633.32827094065851,0.00029871168005849596
633.35725705597577,0.00029266844667783691
633.3862431712929,0.00028656517543193495
633.41522928661004,0.00028040458310672148
633.44421540192729,0.00027418938648812383
633.47320151724443,0.00026792230236214799
633.50218763256157,0.00026160604751472106
633.53117374787882,0.00025524333873177055
633.56015986319596,0.00024883689279930031
633.58914597851322,0.0002423894265032164
633.61813209383035,0.00023590365662951984
633.64711820914749,0.0002293822999641401
633.67610432446475,0.00022282807329300491
633.70509043978188,0.00021624369340212052
633.73407655509902,0.00020963187707741292
633.76306267041628,0.00020299534110481071
633.79204878573341,0.00019633680227032014
633.82103490105055,0.00018965897735986675
633.8500210163678,0.00018296458315937916
633.87900713168494,0.00017625633645486491
633.90799324700208,0.00016953695403224781
633.93697936231933,0.00016280915267745909
633.96596547763647,0.00015607564917650236
633.99495159295361,0.00014933916031530494
634.02393770827086,0.00014260240287979542
634.052923823588,0.00013586809365597917
634.08190993890526,0.00012913894942975747
634.11089605422239,0.00012241768698713611
634.13988216953953,0.00011570702311404285
634.16886828485679,0.00010900967459640627
634.19785440017392,0.00010232835822022827
634.22684051549106,9.5665790771443104e-05
634.25582663080831,8.9024689035970255e-05
634.28481274612545,8.2407769799821163e-05
634.31379886144259,7.5817749848920962e-05
634.34278497675984,6.9257345969199122e-05
634.37177109207698,6.272927494665884e-05
634.40075720739412,5.6236253567230454e-05
634.42974332271137,4.9780998616839531e-05
634.45872943802851,4.3366226881491002e-05
634.48771555334565,3.6994655147113906e-05
634.5167016686629,3.0669000199637277e-05
634.54568778398004,2.4391978825062579e-05
634.57467389929718,1.8166307809321883e-05
634.60366001461443,1.1994703938341192e-05
634.63264612993157,5.8798839981223996e-06
634.66163224524882,-1.7543522542453824e-07
634.69061836056596,-6.168536946305099e-06
634.7196044758831,-1.2096704378581572e-05
634.74859059120035,-1.7957220736329691e-05
634.77757670651749,-2.3747369233550163e-05
634.80656282183463,-2.9464433084306577e-05
634.83554893715188,-3.51056955026725e-05
634.86453505246902,-4.0668439702646469e-05
634.89352116778616,-4.6149948898301617e-05
634.92250728310341,-5.1547506303701966e-05
634.95149339842055,-5.6858395132851694e-05
634.98047951373769,-6.2079898599820028e-05
635.00946562905494,-6.7209299918672728e-05
635.03845174437208,-7.2243882303414837e-05
635.06743785968922,-7.7180928968116451e-05
635.09642397500647,-8.2017723126836389e-05
635.12541009032361,-8.6751547993590972e-05
635.15439620564086,-9.13796867824581e-05
635.183382320958,-9.5899422707450624e-05
635.21236843627514,-0.00010030803898262997
635.24135455159239,-0.00010460281882206275
635.27034066690953,-0.00010878104543976096
635.29932678222667,-0.00011284000204978863
635.32831289754392,-0.00011677697186620369
635.35729901286106,-0.00012058923810302595
635.3862851281782,-0.00012427408397431682
635.41527124349545,-0.00012782879269413339
635.44425735881259,-0.00013125064747649458
635.47324347412973,-0.00013453693153546876
635.50222958944698,-0.00013768492808510172
635.53121570476412,-0.00014069192033942454
635.56020182008126,-0.0001435551915124943
635.58918793539851,-0.00014627202481836549
635.61817405071565,-0.00014883970347106569
635.64716016603279,-0.0001512555106846494
635.67614628135004,-0.00015351672967317369
635.70513239666718,-0.0001556206436506679
635.73411851198443,-0.00015756453583119345
635.76310462730157,-0.00015934568942878227
635.79209074261871,-0.00016096138765748797
635.82107685793596,-0.00016240891373136505
635.8500629732531,-0.00016368555086444282
635.87904908857024,-0.00016478858227077925
635.90803520388749,-0.00016571529116442101
635.93702131920463,-0.00016646296075940956
635.96600743452177,-0.00016702887426979247
635.99499354983902,-0.00016741031490961986
636.02397966515616,-0.00016760456589293236
636.0529657804733,-0.00016760891043378096
636.08195189579055,-0.00016742063174620975
636.11093801110769,-0.00016703701304426714
636.13992412642483,-0.00016645533754199807
636.16891024174208,-0.00016567288845344662
636.19789635705922,-0.00016468694899266379
636.22688247237647,-0.00016349480237369107
636.25586858769361,-0.00016209373181058119
636.28485470301075,-0.00016048102051737737
636.313840818328,-0.00015865395170812022
636.34282693364514,-0.00015660980859686854
636.37181304896228,-0.00015434587439766036
636.40079916427953,-0.00015185943232453539
636.42978527959667,-0.00014914776559155855
636.45877139491381,-0.00014620815741276522
636.48775751023106,-0.00014303789100219167
636.5167436255482,-0.00013963424957390627
636.54572974086534,-0.00013599451634194529
636.57471585618259,-0.00013211597452033978
636.60370197149973,-0.00012799590732316506
636.63268808681687,-0.00012363159796445478
636.66167420213412,-0.00011902032965823393
636.69066031745126,-0.0001141593856185865
636.7196464327684,-0.00010904604905954095
636.74863254808565,-0.0001036776031951266
636.77761866340279,-9.8051331239422217e-05
636.80660477872004,-9.2164516406438926e-05
636.83559089403718,-8.6014441910266769e-05
636.86457700935432,-7.959839096492987e-05
636.89356312467157,-7.291364678444455e-05
636.92254923998871,-6.595749258291473e-05
636.95153535530585,-5.872721157435673e-05
636.9805214706231,-5.1220086972788605e-05
637.00950758594024,-4.3433401992316878e-05
637.03849370125738,-3.5364439846957002e-05
637.06747981657463,-2.7010483750725296e-05
637.09646593189177,-1.836881691773002e-05
637.12545204720891,-9.4367225619866255e-06
637.15443816252616,-2.114838975036254e-07
637.1834242778433,9.3096158615959754e-06
637.21241039316044,1.9129293501305399e-05
637.24139650847769,2.9250265807617866e-05
637.27038262379483,3.9675249566407771e-05
637.29936873911208,5.0406961563707366e-05
637.32835485442922,6.1448118585389309e-05
637.35734096974636,7.2801437417448558e-05
637.38632708506361,8.4469634845883539e-05
637.41531320038075,9.6442324512455505e-05
637.44429931569789,0.00010860055072181053
637.47328543101514,0.00012077169550869619
637.50227154633228,0.00013278276007516222
637.53125766164942,0.00014446074562339886
637.56024377696667,0.00015563265335558941
637.58922989228381,0.00016612548447380616
637.61821600760095,0.00017576624018022027
637.6472021229182,0.00018438192167701678
637.67618823823534,0.00019179953016627144
637.70517435355248,0.00019784606685016755
637.73416046886973,0.00020234853293085546
637.76314658418687,0.00020513392961045082
637.79213269950401,0.00020602925809111786
637.82111881482126,0.00020486151957499303
637.8501049301384,0.00020145771526423016
637.87909104545565,0.00019564484636093969
637.90807716077279,0.00018724991406731707
637.93706327608993,0.00017609991958549183
637.96604939140718,0.00016202186411753972
637.99503550672432,0.00014484274886571863
638.02402162204146,0.00012438957503212167
638.05300773735871,0.00010048934381880203
638.08199385267585,7.2969056428083545e-05
638.11097996799299,4.16557140620194e-05
638.13996608331024,6.3763179226142275e-06
638.16895219862738,-3.304213078771101e-05
638.19793831394452,-7.6772630866948216e-05
638.22692442926177,-0.00012498818111313786
638.25591054457891,-0.00017786178032376532
638.28489665989605,-0.00023556642729686758
638.3138827752133,-0.00029849942001584917
638.34286889053044,-0.00036974239707414022
638.37185500584769,-0.0004541460397893618
638.40084112116483,-0.00055659223127593055
638.42982723648197,-0.00068196285464915823
638.45881335179922,-0.00083513979302478336
638.48779946711636,-0.0010210049295166501
638.5167855824335,-0.0012444401472403721
638.54577169775075,-0.0015103273293120903
638.57475781306789,-0.0018235483588448162
638.60374392838503,-0.002188985118954552
638.63273004370228,-0.002611519492758077
638.66171615901942,-0.0030960333633671955
638.69070227433656,-0.0036474086138984507
638.71968838965381,-0.0042705271274695034
638.74867450497095,-0.0049702707871905061
638.77766062028809,-0.0057515214761788697
638.80664673560534,-0.0066191610775531429
638.83563285092248,-0.0075780714744216049
638.86461896623973,-0.0086331345499068568
638.89360508155687,-0.0097892321871157484
638.92259119687401,-0.011051246269167203
638.95157731219126,-0.012424058679181865
638.9805634275084,-0.013912551300264114
639.00954954282554,-0.01552160601553404
639.03853565814279,-0.017256104708113867
639.06752177345993,-0.019120929261104952
639.09650788877707,-0.021120961557628937
639.12549400409432,-0.023261083480809575
639.15448011941146,-0.025546176913745083
639.1834662347286,-0.027981123739558661
639.21245235004585,-0.030568530293152291
639.24143846536299,-0.033255190781253802
639.27042458068013,-0.035930085904635228
639.29941069599738,-0.038479520384520488
639.32839681131452,-0.040789798942104077
639.35738292663166,-0.042747226298610386
639.38636904194891,-0.044238107175258834
639.41535515726605,-0.045148746293251885
639.4443412725833,-0.045365448373810013
639.47332738790044,-0.044774518138145647
639.50231350321758,-0.043266164186188172
639.53129961853483,-0.04099286637762023
639.56028573385197,-0.038530623409991915
639.58927184916911,-0.036493927511734747
639.61825796448636,-0.035497270911287571
639.6472440798035,-0.036155145837099667
639.67623019512064,-0.039082044517604886
639.70521631043789,-0.044873072695496785
639.73420242575503,-0.053557300526066332
639.76318854107217,-0.064024759638560247
639.79217465638942,-0.074836327086057475
639.82116077170656,-0.084550815427998582
639.8501468870237,-0.091727037223957253
639.87913300234095,-0.094923805033465425
639.90811911765809,-0.092742135714947049
639.93710523297523,-0.085808893655205498
639.96609134829248,-0.077630008427432284
639.99507746360962,-0.071930893352325498
640.02406357892687,-0.072207252201770822
640.05304969424401,-0.07835491475531231
640.08203580956115,-0.087412856274982187
640.1110219248784,-0.096433134016667532
640.14000804019554,-0.10437495586477108
640.16899415551268,-0.11199887996450486
640.19798027082993,-0.12013418536010989
640.22696638614707,-0.12911840817320508
640.25595250146421,-0.13813102284395695
640.28493861678146,-0.14618491252040822
640.3139247320986,-0.15230758824059398
640.34291084741574,-0.15609304743517805
640.37189696273299,-0.15786991883791157
640.40088307805013,-0.15801580183462782
640.42986919336727,-0.1569082958111816
640.45885530868452,-0.1549250001534106
640.48784142400166,-0.15244351424717584
640.51682753931891,-0.14962757822061024
640.54581365463605,-0.14615144070015607
640.57479976995319,-0.14187877494057255
640.60378588527044,-0.13668846474046514
640.63277200058758,-0.13045939389850036
640.66175811590472,-0.12307044621328744
640.69074423122197,-0.11440050548341585
640.71973034653911,-0.10433699732153223
640.74871646185625,-0.093059876643149186
640.7777025771735,-0.081107695171484862
640.80668869249064,-0.069040931942895511
640.83567480780778,-0.057420065993594394
640.86466092312503,-0.046805576359802759
640.89364703844217,-0.037757942068991746
640.92263315375931,-0.030690524321909995
640.95161926907656,-0.025435122728714399
640.9806053843937,-0.021679853695560025
641.00959149971095,-0.01911283362853422
641.03857761502809,-0.017422178933771404
641.06756373034523,-0.016296006017377129
641.09654984566248,-0.015422431285464722
641.12553596097962,-0.014489571144156832
641.15452207629676,-0.013185541999567008
641.18350819161401,-0.011198460257802134
641.21249430693115,-0.0083346277452964745
641.24148042224829,-0.004993338417707216
641.27046653756554,-0.0014962963908899951
641.29945265288268,0.0018725796494321045
641.32843876819982,0.0048293710175741911
641.35742488351707,0.007090159027848264
641.38641099883421,0.0083710249945381232
641.41539711415135,0.0086700886249648779
641.4443832294686,0.0088445560538521484
641.47336934478574,0.0090151663107547186
641.50235546010288,0.0091524689698516681
641.53134157542013,0.0092270136053236307
641.56032769073727,0.0092093497913481315
641.58931380605452,0.009070027102104028
641.61829992137166,0.0087867186184817925
641.6472860366888,0.008391937585433995
641.67627215200605,0.0079436619162613908
641.70525826732319,0.0075000098769419932
641.73424438264033,0.0071190997334504846
641.76323049795758,0.0068590497517588833
641.79221661327472,0.0067779781978452025
641.82120272859186,0.0068755694102704545
641.85018884390911,0.0069646703326067261
641.87917495922625,0.0070209041522619753
641.90816107454339,0.0070549440113727435
641.93714718986064,0.0070774630520780146
641.96613330517778,0.0070991344165138859
641.99511942049492,0.0071306312468173427
642.02410553581217,0.0071826266851267029
642.05309165112931,0.0072657938735778416
642.08207776644656,0.0073908059543090765
642.1110638817637,0.0075683360694562829
642.14004999708084,0.0078090573611573344
642.16903611239809,0.0081236429715516589
642.19802222771523,0.0085227660427722451
642.22700834303237,0.0090170997169582989
642.25599445834962,0.0096173171362499144
642.28498057366676,0.010334091442778082
642.3139666889839,0.011177552804612079
642.34295280430115,0.012146986155697759
642.37193891961829,0.013231672409093065
642.40092503493543,0.014420518090322076
642.42991115025268,0.015702429724911093
642.45889726556982,0.017066313838370872
642.48788338088696,0.018501076956225937
642.51686949620421,0.01999562560400503
642.54585561152135,0.021538866307215354
642.57484172683849,0.023119705591384543
642.60382784215574,0.024727049982039562
642.63281395747288,0.026349806004687615
642.66180007279013,0.02797688018486344
642.69078618810727,0.029597002037029974
642.71977230342441,0.031162869593445608
642.74875841874166,0.032574876200117009
642.7777445340588,0.033818115060668674
642.80673064937594,0.03489843823762051
642.83571676469319,0.035821697793489982
642.86470288001033,0.036593745790784338
