energy,intensity
520.00508803856565,-0.0001738554290031339
520.05486011510061,-0.00015841742557485021
520.10463219163557,-0.00014346530395509087
520.15440426817054,-0.00012899296042836583
520.2041763447055,-0.00011499429127918587
520.25394842124047,-0.00010146319279206355
520.30372049777543,-8.8393561251507704e-05
520.35349257431039,-7.5779292942029786e-05
520.40326465084536,-6.3614284148141029e-05
520.45303672738032,-5.1892431154352452e-05
520.50280880391517,-4.0607630245200659e-05
520.55258088045014,-2.9753777705142891e-05
520.6023529569851,-1.9324769818718245e-05
520.65212503352006,-9.3145028704370901e-06
520.70189711005503,2.8312685519010002e-07
520.75166918658999,9.4742230736516572e-06
520.80144126312496,1.8264889500437431e-05
520.85121333965992,2.6661229851036893e-05
520.90098541619489,3.4669347840938212e-05
520.95075749272985,4.2295347185631184e-05
521.00052956926481,4.9545331600604459e-05
521.05030164579978,5.6425404801347434e-05
521.10007372233474,6.2941670503349233e-05
521.14984579886971,6.9100232422099198e-05
521.19961787540467,7.4907194273085825e-05
521.24938995193963,8.0368659771799301e-05
521.2991620284746,8.5490732633728176e-05
521.34893410500956,9.0279516574360999e-05
521.39870618154441,9.4741115309177862e-05
521.44847825807938,9.8881632553688131e-05
521.49825033461434,0.00010270717202337032
521.5480224111493,0.00010622383743371364
521.59779448768427,0.00010943773250020653
521.64756656421923,0.00011235496093833883
521.6973386407542,0.00011498162646359964
521.74711071728916,0.00011732383279147913
521.79688279382412,0.00011938768363746444
521.84665487035909,0.00012117928271704521
521.89642694689405,0.00012270473374571106
521.94619902342902,0.00012397014043895142
521.99597109996398,0.00012498160651225527
522.04574317649895,0.0001257452356811105
522.09551525303391,0.00012626713166100827
522.14528732956887,0.00012655339816743626
522.19505940610384,0.00012661013891588366
522.2448314826388,0.00012644345762184033
522.29460355917377,0.00012605945800079482
522.34437563570862,0.00012546424376823849
522.39414771224358,0.00012466391863965708
522.44391978877854,0.00012366458633054109
522.49369186531351,0.00012247235055638035
522.54346394184847,0.00012109331503266214
522.59323601838344,0.00011953358347487801
522.6430080949184,0.00011779925959851567
522.69278017145336,0.00011589644711906366
522.74255224798833,0.00011383124975201161
522.79232432452329,0.00011160977121284937
522.84209640105826,0.00010923811521706614
522.89186847759322,0.00010672238548015112
522.94164055412818,0.00010406868571759156
522.99141263066315,0.00010128311964487861
523.04118470719811,9.8371790977499953e-05
523.09095678373308,9.5340803430946086e-05
523.14072886026804,9.2196260720705343e-05
523.19050093680301,8.8944266562268007e-05
523.24027301333786,8.55909246711287e-05
523.29004508987282,8.214233876276361e-05
523.33981716640778,7.8604612552667791e-05
523.38958924294275,7.4983849756330876e-05
523.43936131947771,7.1286154089242283e-05
523.48913339601268,6.7517629266890776e-05
523.53890547254764,6.3684379004765664e-05
523.5886775490826,5.9792507018356362e-05
523.63844962561757,5.5848117023151421e-05
523.68822170215253,5.1857312734640689e-05
523.7379937786875,4.7826197868312608e-05
523.78776585522246,4.3760876139656486e-05
523.83753793175742,3.9667451264161738e-05
523.88731000829239,3.5552026957317347e-05
523.93708208482735,3.1420706934612297e-05
523.98685416136232,2.7279594911535678e-05
524.03662623789728,2.3134794603576689e-05
524.08639831443224,1.8992409726224964e-05
524.13617039096721,1.4858543994969377e-05
524.18594246750206,1.0739301125308126e-05
524.23571454403702,6.6407848327114925e-06
524.28548662057199,2.5690988326786493e-06
524.33525869710695,-1.4696531593013122e-06
524.38503077364192,-5.4693674277409812e-06
524.43480285017688,-9.4239402571490443e-06
524.48457492671184,-1.3327267932036952e-05
524.53434700324681,-1.7173246736915939e-05
524.58411907978177,-2.0955772956297213e-05
524.63389115631674,-2.4668742874690489e-05
524.6836632328517,-2.8306052776607598e-05
524.73343530938666,-3.1861598946559123e-05
524.78320738592163,-3.5329277669056002e-05
524.83297946245659,-3.8702985228609006e-05
524.88275153899156,-4.1976617909728422e-05
524.93252361552652,-4.5144071996926135e-05
524.98229569206148,-4.8199243774712592e-05
525.03206776859645,-5.1136029527598485e-05
525.0818398451313,-5.3948325540088734e-05
525.13161192166626,-5.6630028096706553e-05
525.18138399820123,-5.9175033481956535e-05
525.23115607473619,-6.1577237980349996e-05
525.28092815127116,-6.3830537876397465e-05
525.33070022780612,-6.5928829454609472e-05
525.38047230434108,-6.7866008999496708e-05
525.43024438087605,-6.9635972795570843e-05
525.48001645741101,-7.1232617127342675e-05
525.52978853394598,-7.264983827932241e-05
525.57956061048094,-7.3881532536021607e-05
525.6293326870159,-7.4921596181950741e-05
525.67910476355087,-7.5763925501620287e-05
525.72887684008583,-7.6402416779541588e-05
525.7786489166208,-7.6830966300225662e-05
525.82842099315576,-7.7043470348183199e-05
525.87819306969072,-7.7033825207925002e-05
525.92796514622569,-7.6795927163962087e-05
525.97773722276065,-7.6323672500805038e-05
526.0275092992955,-7.5610957502967148e-05
526.07728137583047,-7.4651678454955208e-05
526.12705345236543,-7.3439731641282186e-05
526.17682552890039,-7.1969013346458773e-05
526.22659760543536,-7.0233419854995338e-05
526.27636968197032,-6.8226847451403764e-05
526.32614175850529,-6.5943192420193334e-05
526.37591383504025,-6.3376351045876475e-05
526.42568591157521,-6.0520219612963879e-05
526.47545798811018,-5.7368694405965045e-05
526.52523006464514,-5.3915671709392509e-05
526.57500214118011,-5.0155047807756313e-05
526.62477421771507,-4.6080718985567256e-05
526.67454629425004,-4.1686581527336465e-05
526.724318370785,-3.6966531717574631e-05
526.77409044731996,-3.1914465840792664e-05
526.82386252385493,-2.6524280181501581e-05
526.87363460038989,-2.0789871024211965e-05
526.92340667692474,-1.4705134653449688e-05
526.97317875345971,-8.2639673536966021e-06
527.02295082999467,-1.4602654094779269e-06
527.07272290652963,5.7120748946954281e-06
527.1224949830646,1.3259157274312988e-05
527.17226705959956,2.1187085444863952e-05
527.22203913613453,2.9501963121836977e-05
527.27181121266949,3.8209894020721155e-05
527.32158328920445,4.7316981857006119e-05
527.37135536573942,5.6829330346180743e-05
527.42112744227438,6.6753043203734552e-05
527.47089951880935,7.7094224145155986e-05
527.52067159534431,8.785897688593457e-05
527.57044367187927,9.9053405141559395e-05
527.62021574841424,0.00011068664266594957
527.6699878249492,0.00012295940023264158
527.71975990148417,0.00013637509414107042
527.76953197801913,0.00015146386505988303
527.81930405455398,0.00016875585365768407
527.86907613108895,0.00018878120060319853
527.91884820762391,0.00021207004656503668
527.96862028415887,0.00023915253221184574
528.01839236069384,0.00027055879821227227
528.0681644372288,0.00030681898523496386
528.11793651376377,0.00034846323394856736
528.16770859029873,0.00039602168502172975
528.21748066683369,0.00045008219348156939
528.26725274336866,0.00051465189232954931
528.31702481990362,0.00059901288565088542
528.36679689643859,0.00071289813953935664
528.41656897297355,0.00086604062008873838
528.46634104950851,0.0010681732933928104
528.51611312604348,0.0013290291255453491
528.56588520257844,0.0016583410826401315
528.61565727911341,0.0020658421307709375
528.66542935564837,0.0025612652360315451
528.71520143218333,0.0031543433645157305
528.76497350871819,0.0038548094823155354
528.81474558525315,0.0046724135424769803
528.86451766178811,0.0056174234746884447
528.91428973832308,0.0067007076462579709
528.96406181485804,0.0079331680165465185
529.01383389139301,0.0093256917765906222
529.06360596792797,0.010886905229254035
529.11337804446293,0.012620762429017898
529.1631501209979,0.014530639162625453
529.21292219753286,0.016616873995241699
529.26269427406783,0.018679871623576649
529.31246635060279,0.020199508753248024
529.36223842713775,0.020626808774176858
529.41201050367272,0.019430598420633438
529.46178258020768,0.016659722665916255
529.51155465674265,0.013021493659649497
529.56132673327761,0.0092539386018495318
529.61109880981257,0.0060906369872947286
529.66087088634742,0.0039441360692317184
529.71064296288239,0.0026954503550307152
529.76041503941735,0.002175661459778766
529.81018711595232,0.0022201957864040334
529.85995919248728,0.0027487423125232557
529.90973126902225,0.0036273798788551415
529.95950334555721,0.0046825959335107803
530.00927542209217,0.005740877924601151
530.05904749862714,0.0066287133002370657
530.1088195751621,0.0071725895085297808
530.15859165169707,0.007198993997590164
530.20836372823203,0.0065344420777588286
530.25813580476699,0.0051800772197426737
530.30790788130196,0.003725518221444013
530.35767995783692,0.0028842137264656342
530.40745203437189,0.0033688049217199811
530.45722411090685,0.0054356582060118841
530.50699618744181,0.0081243336421638057
530.55676826397678,0.01027374948084292
530.60654034051163,0.010722828157448294
530.65631241704659,0.0087081298303239851
530.70608449358156,0.0049534290759725152
530.75585657011652,0.00053012793624418464
530.80562864665148,-0.0034905881140708805
530.85540072318645,-0.0063423972867931999
530.90517279972141,-0.008170514751365987
530.95494487625638,-0.0092897852785486235
531.00471695279134,-0.010014796141855742
531.05448902932631,-0.010578670829372361
531.10426110586127,-0.011017371241477503
531.15403318239623,-0.011337618605352762
531.2038052589312,-0.011546134148179399
531.25357733546616,-0.011649639097138675
531.30334941200113,-0.011654854679412185
531.35312148853609,-0.011568502122180857
531.40289356507105,-0.011397302652626173
531.45266564160602,-0.011147977497929396
531.50243771814087,-0.010827247885272895
531.55220979467583,-0.010441835041836212
531.6019818712108,-0.009998447496967322
531.65175394774576,-0.0095005035778178426
531.70152602428072,-0.0089437625955384181
531.75129810081569,-0.0083228963766771025
531.80107017735065,-0.0076325767477817275
531.85084225388562,-0.0068674755354001804
531.90061433042058,-0.0060222645660803487
531.95038640695554,-0.0050916156663705081
532.00015848349051,-0.0040702006628181575
532.04993056002547,-0.0029556913591715639
532.09970263656044,-0.0017676299451989119
532.1494747130954,-0.00053524430384926935
532.19924678963037,0.00071219444016423772
532.24901886616533,0.0019454151621287052
532.29879094270029,0.0031351467373306741
532.34856301923526,0.0042521180410571846
532.39833509577011,0.0052670579485927793
532.44810717230507,0.0061506953352292726
532.49787924884004,0.0068737590762507628
532.547651325375,0.0074069780469444568
532.59742340190996,0.0077211074577226424
532.64719547844493,0.0077986645936475862
532.69696755497989,0.007538055103834651
532.74673963151486,0.0067672872944136153
532.79651170804982,0.0053143427351474148
532.84628378458478,0.0032217944593070369
532.89605586111975,0.0010811467581232082
532.94582793765471,-0.00042957172947521993
532.99560001418968,-0.00063233255969036284
533.04537209072464,0.00088301620414021897
533.0951441672596,0.0034839095126009134
533.14491624379457,0.0062841079782742781
533.19468832032953,0.0083974088705548455
533.2444603968645,0.0091652843987706234
533.29423247339946,0.0087238374591422918
533.34400454993431,0.0073906683741009616
533.39377662646928,0.0054835934571269007
533.44354870300424,0.0033204290217092591
533.4933207795392,0.0012189913813352993
533.54309285607417,-0.0005029031505072723
533.59286493260913,-0.0015274382603323033
533.6426370091441,-0.0016306831086709828
533.69240908567906,-0.0010185226648369294
533.74218116221402,-1.9769714130535299e-05
533.79195323874899,0.0010367531745729686
533.84172531528395,0.0018813097908518817
533.89149739181892,0.0024824379962813392
533.94126946835388,0.0028687302579992746
533.99104154488884,0.0030687790443275631
534.04081362142381,0.0031111768235881909
534.09058569795877,0.0030245160641032554
534.14035777449374,0.0028373892341948537
534.1901298510287,0.0025783888021849721
534.23990192756355,0.0022761072363964852
534.28967400409852,0.0019591370051497137
534.33944608063348,0.0016560705767674211
534.38921815716844,0.0013955004195715937
534.43899023370341,0.0012037062498150286
534.48876231023837,0.0010848097613772589
534.53853438677334,0.0010306026243970257
534.5883064633083,0.0010327436594425032
534.63807853984326,0.0010828916870817551
534.68785061637823,0.0011727055278829557
534.73762269291319,0.0012938440024143905
534.78739476944816,0.0014379659312443449
534.83716684598312,0.0015967301349408825
534.88693892251808,0.0017617954340721775
534.93671099905305,0.0019248206492067377
534.98648307558801,0.0020774646009121822
535.03625515212298,0.0022120959194162904
535.08602722865794,0.0023274375198608643
535.1357993051929,0.0024255603689864458
535.18557138172775,0.0025085654622858389
535.23534345826272,0.0025785537952507376
535.28511553479768,0.0026376263633725028
535.33488761133265,0.0026878841621431615
535.38465968786761,0.0027314281870540746
535.43443176440258,0.0027703594335972692
535.48420384093754,0.0028067788972641061
535.5339759174725,0.0028427875735466124
535.58374799400747,0.0028804864579364819
535.63352007054243,0.0029212272477656676
535.6832921470774,0.0029559717318096146
535.73306422361236,0.0029680840476087322
535.78283630014732,0.0029407546926715211
535.83260837668229,0.0028571741645061488
535.88238045321725,0.0027005329606218931
535.93215252975222,0.0024540215785262554
535.98192460628718,0.0021008305157280693
536.03169668282214,0.0016225050550563447
536.08146875935699,0.00098758583713864923
536.13124083589196,0.00015843668377069076
536.18101291242692,-0.00090261600715024759
536.23078498896189,-0.0022161994132037233
536.28055706549685,-0.0035469888805919059
536.33032914203181,-0.0044621729831351153
536.38010121856678,-0.004523833924406806
536.42987329510174,-0.0033416598647687534
536.47964537163671,-0.0012040231917883615
536.52941744817167,0.0010949399140023353
536.57918952470663,0.0027490117524157087
536.6289616012416,0.0030036318267658846
536.67873367777656,0.0018624461931833203
536.72850575431153,7.00413144771872e-06
536.77827783084649,-0.001849851515980605
536.82804990738146,-0.0030239719459967951
536.87782198391642,-0.0033397195933674295
536.92759406045138,-0.0030578127990221748
536.97736613698635,-0.0024531268557674846
537.0271382135212,-0.0017921032148148219
537.07691029005616,-0.0011957542844875935
537.12668236659113,-0.0006624085041896377
537.17645444312609,-0.00018655077524987185
537.22622651966105,0.00024547323096346663
537.27599859619602,0.00068554753285676728
537.32577067273098,0.0011289351602964404
537.37554274926595,0.0015595684551260591
537.42531482580091,0.0019613797591884197
537.47508690233587,0.0023183014143270952
537.52485897887084,0.002614265762385104
537.5746310554058,0.0028332051452060192
537.62440313194077,0.0029590519046320818
537.67417520847573,0.0029757383825076422
537.72394728501069,0.0028671969206753856
537.77371936154566,0.002617359860978663
537.82349143808062,0.0022192340157010104
537.87326351461559,0.0017384759874102818
537.92303559115044,0.0012306910554951145
537.9728076676854,0.00074297747059026698
538.02257974422037,0.00032243348333393929
538.07235182075533,1.6157344364109427e-05
538.12212389729029,-0.00012875269568202174
538.17189597382526,-6.5198386167308886e-05
538.22166805036022,0.00025228389640502558
538.27144012689519,0.00080921416689883063
538.32121220343015,0.0015152658573791555
538.37098427996511,0.0022752418695681786
538.42075635650008,0.002992967781883904
538.47052843303504,0.0035881664974427019
538.52030050957001,0.0040616318342076574
538.57007258610497,0.0044293723729269541
538.61984466263993,0.0047073966943493306
538.6696167391749,0.004911713379222804
538.71938881570986,0.0050583310082963906
538.76916089224483,0.0051632581623177742
538.81893296877979,0.0052424596046496963
538.86870504531464,0.0053085646423041699
538.91847712184961,0.0053685794495975658
538.96824919838457,0.0054289693507982295
539.01802127491953,0.0054961996701749505
539.0677933514545,0.0055767357319966293
539.11756542798946,0.005677042860531889
539.16733750452443,0.0058035863800492971
539.21710958105939,0.0059628316148176985
539.26688165759435,0.006161243889106105
539.31665373412932,0.0064052885271826954
539.36642581066428,0.0067014308533165368
539.41619788719925,0.0070550157673305858
539.46596996373421,0.0074535800414851083
539.51574204026917,0.007879611091901384
539.56551411680414,0.0083176811871660261
539.6152861933391,0.0087523625958663143
539.66505826987407,0.0091682275865893614
539.71483034640903,0.0095498484279216145
539.76460242294388,0.0098817973884496868
539.81437449947884,0.010148646736762301
539.86414657601381,0.010334968741445072
539.91391865254877,0.010425335671085389
539.96369072908374,0.010404319794270034
540.0134628056187,0.010256762172156986
540.06323488215367,0.0099822321745276499
540.11300695868863,0.0096023578922864727
540.16277903522359,0.0091405776967266039
540.21255111175856,0.0086203299591414151
540.26232318829352,0.0080650530508238338
540.31209526482849,0.007498185343068009
540.36186734136345,0.006943165207166313
540.41163941789841,0.0064234310144123397
540.46141149443338,0.0059624211360996826
540.51118357096834,0.0055835739435211584
540.56095564750331,0.0053103278079705829
540.61072772403827,0.0051661211007407726
540.66049980057323,0.005165968422670697
540.71027187710808,0.0052890545417511037
540.76004395364305,0.0055050396972017301
540.80981603017801,0.0057835840513461578
540.85958810671298,0.0060943477665088563
540.90936018324794,0.0064069910050139622
540.9591322597829,0.0066911739291859451
541.00890433631787,0.0069165568584887982
541.05867641285283,0.0070598361542506538
541.1084484893878,0.0071235112561719438
541.15822056592276,0.0071159950441700426
541.20799264245773,0.0070457003981628796
541.25776471899269,0.0069210401980682734
541.30753679552765,0.0067504273238041534
541.35730887206262,0.0065422746552877831
541.40708094859758,0.0063049950724370918
541.45685302513255,0.0060470014551702311
541.50662510166751,0.0057767066834042424
541.55639717820247,0.0055025236370576103
541.60616925473732,0.0052328651960479311
541.65594133127229,0.0049761442402920242
541.70571340780725,0.0047407736497084851
541.75548548434222,0.0045351663042149104
541.80525756087718,0.0043677350837287854
541.85502963741214,0.0042468928681682616
541.90480171394711,0.0041810525374507135
541.95457379048207,0.0041786269714942925
542.00434586701704,0.0042480290502163731
542.054117943552,0.0043976716535347737
542.10389002008696,0.0046359676613672018
542.15366209662193,0.0049713299536315869
542.20343417315689,0.0054121699542281076
542.25320624969186,0.0059536238575816913
542.30297832622682,0.0065451414997809154
542.35275040276179,0.0071263520809630165
542.40252247929675,0.0076368848012647872
542.45229455583171,0.008016368860823686
542.50206663236668,0.0082044334597765056
542.55183870890153,0.0081407077982608156
542.60161078543649,0.0077648210764138526
542.65138286197146,0.0070416213969594077
542.70115493850642,0.0060876175268324006
542.75092701504138,0.0050757438194017901
542.80069909157635,0.0041790293111862997
542.85047116811131,0.0035410561812814212
542.90024324464628,0.0031606752075088451
542.95001532118124,0.0029923450806134122
542.9997873977162,0.0029905127918803398
543.04955947425117,0.0031096253325948453
543.09933155078613,0.0033041296940424791
543.1491036273211,0.0035284728675081256
543.19887570385606,0.0037371018442768911
543.24864778039102,0.0038844636156337708
543.29841985692599,0.0039250051728643154
543.34819193346095,0.003813173507253631
543.39796400999592,0.0035034156100867131
543.44773608653077,0.0029702445089140328
543.49750816306573,0.0022703603407479012
543.5472802396007,0.0014815022228013008
543.59705231613566,0.00068140928238391574
543.64682439267062,-5.2179353193348987e-05
543.69659646920559,-0.00064152455662114249
543.74636854574055,-0.0010088872005886707
543.79614062227552,-0.0010765691792286036
543.84591269881048,-0.00081470918584991558
543.89568477534544,-0.00033358633485780498
543.94545685188041,0.00023099121152303503
