energy,intensity
629.00933975839894,0.0018060727004146973
629.03832587371608,0.001745794843555089
629.06731198903333,0.0016865220729010912
629.09629810435047,0.0016282475034625024
629.12528421966761,0.0015709642502484214
629.15427033498486,0.0015146654282679631
629.183256450302,0.0014593441525309033
629.21224256561914,0.0014049935380463514
629.24122868093639,0.0013516066998234347
629.27021479625353,0.001299176752871905
629.29920091157078,0.0012476968122006847
629.32818702688792,0.0011971599928195108
629.35717314220506,0.0011475594097375128
629.38615925752231,0.0010988881779638365
629.41514537283945,0.0010511394125081962
629.44413148815659,0.0010043062283797324
629.47311760347384,0.00095838174058760135
629.50210371879098,0.00091335906414149591
629.53108983410812,0.00086923131405056901
629.56007594942537,0.0008259916053239845
629.58906206474251,0.00078363305297141604
629.61804818005965,0.00074214877200202577
629.6470342953769,0.00070153187742498979
629.67602041069404,0.00066177548424996074
629.70500652601118,0.00062287270748611018
629.73399264132843,0.00058481666214262387
629.76297875664557,0.00054760046322913493
629.7919648719627,0.00051121722575482543
629.82095098727996,0.00047566006472889123
629.8499371025971,0.00044092209516094483
629.87892321791435,0.00040699643206004677
629.90790933323149,0.00037387619043579797
629.93689544854863,0.00034155448529739427
629.96588156386588,0.00031002443165405028
629.99486767918302,0.00027927914451534599
630.02385379450016,0.00024931173889048883
630.05283990981741,0.00022011532978870037
630.08182602513455,0.00019168303221954366
630.11081214045169,0.00016400796119223483
630.13979825576894,0.00013708323171600324
630.16878437108608,0.00011090195880039504
630.19777048640321,8.5457257454635239e-05
630.22675660172047,6.0742242687962522e-05
630.25574271703761,3.6750029509904827e-05
630.28472883235474,1.3473732929696709e-05
630.313714947672,-9.0935320434144817e-06
630.34270106298914,-3.0958650399922055e-05
630.37168717830639,-5.2128507130658024e-05
630.40067329362353,-7.2609987226125673e-05
630.42965940894067,-9.2409975677078303e-05
630.45864552425792,-0.00011153535747425252
630.48763163957506,-0.00012999301760816461
630.5166177548922,-0.00014778984106956139
630.54560387020945,-0.00016493271284917011
630.57458998552659,-0.00018142851793752639
630.60357610084372,-0.000197284141325364
630.63256221616098,-0.00021250646800340871
630.66154833147812,-0.00022710238296220456
630.69053444679525,-0.00024107877119248361
630.71952056211251,-0.00025444251768496013
630.74850667742965,-0.00026720050743019746
630.77749279274678,-0.00027935962541891313
630.80647890806404,-0.00029092675664182163
630.83546502338118,-0.00030190878608949518
630.86445113869831,-0.00031231259875264894
630.89343725401557,-0.00032214507962198677
630.92242336933271,-0.00033141311368809607
630.95140948464996,-0.00034012358594171736
630.9803955999671,-0.00034828338137344889
631.00938171528423,-0.00035589938497399367
631.03836783060149,-0.00036297848173404168
631.06735394591863,-0.00036952755664420504
631.09634006123576,-0.00037555349469518395
631.12532617655302,-0.00038106318087765645
631.15431229187016,-0.00038606350018225333
631.18329840718729,-0.00039056133759965937
631.21228452250455,-0.00039456357812055762
631.24127063782169,-0.00039807710673558146
631.27025675313882,-0.00040110880843541676
631.29924286845608,-0.000403665568210738
631.32822898377322,-0.00040575427105218973
631.35721509909035,-0.00040738180195045077
631.38620121440761,-0.00040855504589619386
631.41518732972474,-0.00040928088788007018
631.444173445042,-0.00040956621289275788
631.47315956035914,-0.00040941790592491964
631.50214567567627,-0.00040884285196722049
631.53113179099353,-0.00040784793601032526
631.56011790631067,-0.00040644004304490823
631.5891040216278,-0.00040462605806163249
631.61809013694506,-0.00040241286605115483
631.6470762522622,-0.00039980735200415951
631.67606236757933,-0.0003968164009113031
631.70504848289659,-0.00039344689776324047
631.73403459821373,-0.00038970572755066409
631.76302071353086,-0.00038559977526422481
631.79200682884812,-0.0003811359258945764
631.82099294416525,-0.00037632106443241729
631.84997905948239,-0.00037116207586839704
631.87896517479965,-0.00036566584519315964
631.90795129011678,-0.00035983925739741527
631.93693740543404,-0.00035368919747178742
631.96592352075118,-0.00034722255040698616
631.99490963606831,-0.00034044620119365483
632.02389575138557,-0.00033336703482243356
632.05288186670271,-0.00032599193628404224
632.08186798201984,-0.00031832779056912576
632.1108540973371,-0.00031038148266831339
632.13984021265424,-0.00030215989757233631
632.16882632797137,-0.00029366992027182964
632.19781244328863,-0.00028491843575742211
632.22679855860576,-0.00027591232901985282
632.2557846739229,-0.00026665848504975331
632.28477078924016,-0.00025716378883775155
632.31375690455729,-0.00024743512537458859
632.34274301987443,-0.00023747937965089749
632.37172913519169,-0.00022730343665729885
632.40071525050882,-0.00021691418138454488
632.42970136582596,-0.00020631849882325379
632.45868748114322,-0.00019552327396405995
632.48767359646035,-0.0001845353917977069
632.51665971177761,-0.00017336173731477751
632.54564582709475,-0.00016200919550602615
632.57463194241188,-0.0001504846513620756
632.60361805772914,-0.00013879498987354709
632.63260417304627,-0.00012694709603119415
632.66159028836341,-0.00011494785482564691
632.69057640368067,-0.00010280415124751209
632.7195625189978,-9.0522870287560765e-05
632.74854863431494,-7.8110896936410068e-05
632.7775347496322,-6.5575116184673219e-05
632.80652086494933,-5.292241302311913e-05
632.83550698026647,-4.0159672442362107e-05
632.86449309558373,-2.729377943302253e-05
632.89347921090086,-1.4331618985864106e-05
632.922465326218,-1.2800760915024443e-06
632.95145144153526,1.185396425944338e-05
632.98043755685239,2.5063617076208572e-05
633.00942367216953,3.834199736817796e-05
633.03840978748678,5.1682220144732682e-05
633.06739590280392,6.5077400415106861e-05
633.09638201812118,7.8520653188735631e-05
633.12536813343831,9.2005093474850077e-05
633.15435424875545,0.00010552383628283156
633.18334036407271,0.00011906999662207292
633.21232647938984,0.00013263668950179788
633.24131259470698,0.00014621702993139344
633.27029871002424,0.00015980413292024419
633.29928482534137,0.00017339111347758384
633.32827094065851,0.00018697108661279048
633.35725705597577,0.00020053716733525956
633.3862431712929,0.00021408247065420917
633.41522928661004,0.00022760011157903302
633.44421540192729,0.00024108320511911701
633.47320151724443,0.00025452486628368487
633.50218763256157,0.00026791821008212684
633.53117374787882,0.00028125635152382363
633.56015986319596,0.0002945324056180124
633.58914597851322,0.00030773948737412328
633.61813209383035,0.00032087071180138954
633.64711820914749,0.00033391919390919752
633.67610432446475,0.00034687804870692533
633.70509043978188,0.00035974039120381402
633.73407655509902,0.00037249933640923953
633.76306267041628,0.00038514799933259299
633.79204878573341,0.00039767949498310459
633.82103490105055,0.00041008693837015636
633.8500210163678,0.0004223634445031316
633.87900713168494,0.00043450212839126704
633.90799324700208,0.00044649610504394165
633.93697936231933,0.00045833848947054263
633.96596547763647,0.00047002239668030325
633.99495159295361,0.00048154094168260855
634.02393770827086,0.00049288723948683272
634.052923823588,0.00050405440510222291
634.08190993890526,0.00051503555353819537
634.11089605422239,0.00052582379980400766
634.13988216953953,0.00053641225890902963
634.16886828485679,0.00054679404586263159
634.19785440017392,0.00055696227567407497
634.22684051549106,0.00056691006335272747
634.25582663080831,0.00057663052390795983
634.28481274612545,0.00058611677234903089
634.31379886144259,0.00059536192368531918
634.34278497675984,0.00060435909292618634
634.37177109207698,0.00061310139508089119
634.40075720739412,0.00062158194515881272
634.42974332271137,0.00062979385816931167
634.45872943802851,0.00063773024912166035
634.48771555334565,0.00064538423302521689
634.5167016686629,0.00065274892488935074
634.54568778398004,0.00065981743972333244
634.57467389929718,0.00066658289253652969
634.60366001461443,0.00067303839833829805
634.63264612993157,0.0006791770721379202
634.66163224524882,0.00068499202894478032
634.69061836056596,0.00069047638376816805
634.7196044758831,0.000695623251617432
634.74859059120035,0.00070042574750193033
634.77757670651749,0.000704876986430957
634.80656282183463,0.0007089700834138693
634.83554893715188,0.00071269815346000544
634.86453505246902,0.00071605431157867588
634.89352116778616,0.00071903167277923181
634.92250728310341,0.00072162335207101233
634.95149339842055,0.00072382246446333221
634.98047951373769,0.000725622124965534
635.00946562905494,0.00072701544858695764
635.03845174437208,0.00072799555033692398
635.06743785968922,0.00072855554522477557
635.09642397500647,0.00072868854825984195
635.12541009032361,0.0007283876744514613
635.15439620564086,0.00072764603880896058
635.183382320958,0.00072645675634167711
635.21236843627514,0.00072481294205894737
635.24135455159239,0.00072270771097009568
635.27034066690953,0.00072013417808446806
635.29932678222667,0.00071708545841138883
635.32831289754392,0.00071355466696018145
635.35729901286106,0.00070953491874020669
635.3862851281782,0.00070501932876078713
635.41527124349545,0.00070000101203122975
635.44425735881259,0.00069447308356091614
635.47324347412973,0.00068842865835915326
635.50222958944698,0.00068186085143524811
635.53121570476412,0.00067476277779859092
635.56020182008126,0.00066712755245848781
635.58918793539851,0.00065894829042423709
635.61817405071565,0.00065021810670523681
635.64716016603279,0.00064093011631079309
635.67614628135004,0.00063107743425019729
635.70513239666718,0.00062065317553286221
635.73411851198443,0.00060965045516803758
635.76310462730157,0.00059806238816514142
635.79209074261871,0.00058588208953347203
635.82107685793596,0.00057310267428230428
635.8500629732531,0.00055971725742107615
635.87904908857024,0.00054571895395906858
635.90803520388749,0.00053110087890555994
635.93702131920463,0.00051585614726999685
635.96600743452177,0.00049997787406165679
635.99499354983902,0.00048345917428980947
636.02397966515616,0.00046629316296391884
636.0529657804733,0.00044847295509324505
636.08195189579055,0.00042999166568706126
636.11093801110769,0.00041084240975483837
636.13992412642483,0.00039101830230583827
636.16891024174208,0.00037051245834931416
636.19789635705922,0.00034931799289476383
636.22688247237647,0.00032742802095135377
636.25586858769361,0.00030483565752858263
636.28485470301075,0.00028153401763570101
636.313840818328,0.00025751621628195866
636.34282693364514,0.0002327753684768603
636.37181304896228,0.00020730458922966089
636.40079916427953,0.00018109699354958413
636.42978527959667,0.00015414569644616426
636.45877139491381,0.00012644381292863972
636.48775751023106,9.7984458006227307e-05
636.5167436255482,6.8760746688488125e-05
636.54572974086534,3.876579398464676e-05
636.57471585618259,7.9927149039078424e-06
636.60370197149973,-2.3565375544155366e-05
636.63268808681687,-5.591536235031308e-05
636.66167420213412,-8.9064130505380618e-05
636.69066031745126,-0.00012301856499976043
636.7196464327684,-0.00015778555082423748
636.74863254808565,-0.00019337197296962882
636.77761866340279,-0.00022978471642632475
636.80660477872004,-0.00026703066618526984
636.83559089403718,-0.00030511670723683878
636.86457700935432,-0.00034404972457184428
636.89356312467157,-0.00038383660318111641
636.92254923998871,-0.00042448422805499431
636.95153535530585,-0.00046599948418431496
636.9805214706231,-0.00050838925655990498
637.00950758594024,-0.00055166043017209742
637.03849370125738,-0.00059581989001173015
637.06747981657463,-0.00064087452106963583
637.09646593189177,-0.00068683120833614233
637.12545204720891,-0.00073369683680207971
637.15443816252616,-0.00078147829145830926
637.1834242778433,-0.00083018245729512066
637.21241039316044,-0.00087981621930336741
637.24139650847769,-0.00093038646247391339
637.27038262379483,-0.00098190007179702922
637.29936873911208,-0.0010343639322637904
637.32835485442922,-0.0010877849288644433
637.35734096974636,-0.0011421699465898605
637.38632708506361,-0.0011975258704309388
637.41531320038075,-0.0012538815506374177
637.44429931569789,-0.0013114478360434223
637.47328543101514,-0.0013705255314261852
637.50227154633228,-0.0014314160799651695
637.53125766164942,-0.0014944209248405407
637.56024377696667,-0.0015598415092324923
637.58922989228381,-0.0016279792763204629
637.61821600760095,-0.0016991356692846304
637.6472021229182,-0.0017736121313052366
637.67618823823534,-0.0018517101055616318
637.70517435355248,-0.0019337310352340476
637.73416046886973,-0.0020199763635027554
637.76314658418687,-0.0021107475335470308
637.79213269950401,-0.0022063459885471315
637.82111881482126,-0.0023070731716833999
637.8501049301384,-0.0024132305261349921
637.87909104545565,-0.0025251194950826651
637.90807716077279,-0.002643041521705497
637.93706327608993,-0.0027672980491838459
637.96604939140718,-0.0028981905206981705
637.99503550672432,-0.0030360203794273927
638.02402162204146,-0.00318108906855194
638.05300773735871,-0.0033336980312523683
638.08199385267585,-0.0034941487107074155
638.11097996799299,-0.003662742550097603
638.13996608331024,-0.0038397809926035871
638.16895219862738,-0.0040255654814039185
638.19793831394452,-0.0042203974596791843
638.22692442926177,-0.004424578370610173
638.25591054457891,-0.0046384096573752198
638.28489665989605,-0.0048621927631550266
638.3138827752133,-0.0050964272925388965
638.34286889053044,-0.0053439843822053884
638.37185500584769,-0.0056092980634908363
638.40084112116483,-0.0058968299335531507
638.42982723648197,-0.0062110415895533927
638.45881335179922,-0.0065563946286529701
638.48779946711636,-0.0069373506480092315
638.5167855824335,-0.0073583712447834529
638.54577169775075,-0.0078239180161376112
638.57475781306789,-0.0083384525592280628
638.60374392838503,-0.0089064364712165556
638.63273004370228,-0.0095323313492656908
638.66171615901942,-0.010220598790530597
638.69070227433656,-0.01097570039217366
638.71968838965381,-0.011802097751358209
638.74867450497095,-0.012704252465237834
638.77766062028809,-0.013686626130975654
638.80664673560534,-0.01475368034573607
638.83563285092248,-0.015909876706670698
638.86461896623973,-0.017159676810948682
638.89360508155687,-0.018507542255720238
638.92259119687401,-0.019957934638150127
638.95157731219126,-0.021515315555404646
638.9805634275084,-0.023184146604631667
639.00954954282554,-0.024968889382997073
639.03853565814279,-0.026874005487668551
639.06752177345993,-0.028903956515791307
639.09650788877707,-0.031063204064532474
639.12549400409432,-0.033356209731061431
639.15448011941146,-0.035787435112520138
639.1834662347286,-0.03836134180607742
639.21245235004585,-0.041080927433187309
639.24143846536299,-0.043913282839283529
639.27042458068013,-0.046788304505854472
639.29941069599738,-0.049634167320868838
639.32839681131452,-0.052379046172261468
639.35738292663166,-0.054951115948001172
639.38636904194891,-0.057278551536054323
639.41535515726605,-0.059289527824359589
639.4443412725833,-0.060912219700890002
639.47332738790044,-0.06207480205358995
639.50231350321758,-0.062705449770424249
639.53129961853483,-0.062732337739349386
639.56028573385197,-0.062083640848322297
639.58927184916911,-0.060687533985302022
639.61825796448636,-0.058472192038235615
639.6472440798035,-0.055365789895097661
639.67623019512064,-0.051296502443838987
639.70521631043789,-0.046192504572394877
639.73420242575503,-0.040088705802888591
639.76318854107217,-0.033891975916919392
639.79217465638942,-0.028935075043826863
639.82116077170656,-0.02655364954804118
639.8501468870237,-0.02808334579392624
639.87913300234095,-0.034859810145907888
639.90811911765809,-0.048147970359083248
639.93710523297523,-0.065818191942729865
639.96609134829248,-0.080916604698060279
639.99507746360962,-0.08612156581138164
640.02406357892687,-0.07480826138267882
640.05304969424401,-0.051272173585820147
640.08203580956115,-0.02847511492640975
640.1110219248784,-0.019491503102726293
640.14000804019554,-0.033135530622100173
640.16899415551268,-0.063989400923610829
640.19798027082993,-0.10141254292921165
640.22696638614707,-0.13541655163599375
640.25595250146421,-0.16202164210085002
640.28493861678146,-0.18040549233742831
640.3139247320986,-0.18979995110242198
640.34291084741574,-0.19044821459901495
640.37189696273299,-0.18390501537457604
640.40088307805013,-0.17181251322034941
640.42986919336727,-0.15581286792750815
640.45885530868452,-0.13754823928716542
640.48784142400166,-0.11866078709066041
640.51682753931891,-0.10051412592841347
640.54581365463605,-0.083325331930331537
640.57479976995319,-0.067020007827432782
640.60378588527044,-0.051524003213878178
640.63277200058758,-0.036763167684004117
640.66175811590472,-0.022663350831967799
640.69074423122197,-0.0091500424906574285
640.71973034653911,0.0040501575370517351
640.74871646185625,0.017323311223604421
640.7777025771735,0.030589915687798674
640.80668869249064,0.043736217520295328
640.83567480780778,0.056648463311911756
640.86466092312503,0.069212899653461335
640.89364703844217,0.081315773136682479
640.92263315375931,0.092861117193338227
640.95161926907656,0.10382327721620266
640.9806053843937,0.11419397018505095
641.00959149971095,0.12396491307982882
641.03857761502809,0.13312782288032188
641.06756373034523,0.14167441656643276
641.09654984566248,0.14959641111805411
641.12553596097962,0.15688552351498597
641.15452207629676,0.16353347073712499
641.18350819161401,0.1695319697643547
641.21249430693115,0.17487408871886867
641.24148042224829,0.1796222824611684
641.27046653756554,0.18394032743476041
641.29945265288268,0.18800002658397608
641.32843876819982,0.19197318285319764
641.35742488351707,0.19603159918680313
641.38641099883421,0.20034707852912748
641.41539711415135,0.20470461417455033
641.4443832294686,0.20788695361099929
641.47336934478574,0.21007167224348833
641.50235546010288,0.21169196603500495
641.53134157542013,0.2131810309485267
641.56032769073727,0.21497206294701576
641.58931380605452,0.21749825799346167
641.61829992137166,0.2211368281316819
641.6472860366888,0.22583399440130236
641.67627215200605,0.23133585001282864
641.70525826732319,0.23738738513952962
641.73424438264033,0.24373358995473859
641.76323049795758,0.25011945463179375
641.79221661327472,0.25628996934395776
641.82120272859186,0.26202203735130958
641.85018884390911,0.26725696954000533
641.87917495922625,0.27198886928221055
641.90816107454339,0.27621186456469804
641.93714718986064,0.27992008337423213
641.96613330517778,0.28310765369753144
641.99511942049492,0.28576870352136297
642.02410553581217,0.28789736083248352
642.05309165112931,0.28948775361762635
642.08207776644656,0.29053400986355449
642.1110638817637,0.29103125169684541
642.14004999708084,0.29098540258514083
642.16903611239809,0.29040901185219292
642.19802222771523,0.28931472482687637
642.22700834303237,0.28771518683806008
642.25599445834962,0.28562304321460497
642.28498057366676,0.28305093928539682
642.3139666889839,0.28001085936375025
642.34295280430115,0.27650158479667053
642.37193891961829,0.27250971805621838
642.40092503493543,0.26802140583577017
642.42991115025268,0.26302279482869517
642.45889726556982,0.25750003172841818
642.48788338088696,0.25143926322831289
642.51686949620421,0.24482663602173815
642.54585561152135,0.23764829680213428
642.57484172683849,0.22989039226286656
642.60382784215574,0.22153906909728782
642.63281395747288,0.2125804739988526
642.66180007279013,0.20300075366088022
642.69078618810727,0.19278605477683208
642.71977230342441,0.18193091575277442
642.74875841874166,0.17066057950186564
642.7777445340588,0.15950113377906039
642.80673064937594,0.14900771912374644
642.83571676469319,0.13973547607532399
642.86470288001033,0.13223954517329983
642.89368899532747,0.12706323302931199
642.92267511064472,0.12393220525438631
642.95166122596186,0.12123870321072228
642.980647341279,0.11725217825970491
