energy,intensity
520.00508803856565,-0.00066098806770404544
520.05486011510061,-0.00061771455735052283
520.10463219163557,-0.00057564994999250807
520.15440426817054,-0.00053478027640270346
520.2041763447055,-0.0004950915673538112
520.25394842124047,-0.00045656985361853381
520.30372049777543,-0.00041920116596957306
520.35349257431039,-0.00038297153517963153
520.40326465084536,-0.00034786699202141137
520.45303672738032,-0.00031387356726761493
520.50280880391517,-0.00028097729169101825
520.55258088045014,-0.00024916419606417348
520.6023529569851,-0.00021842031115985882
520.65212503352006,-0.0001887316677507771
520.70189711005503,-0.00016008429660963015
520.75166918658999,-0.00013246422850912045
520.80144126312496,-0.00010585749422195019
520.85121333965992,-8.025012452082155e-05
520.90098541619489,-5.5628150178436842e-05
520.95075749272985,-3.1977601967498352e-05
521.00052956926481,-9.2845106607081771e-06
521.05030164579978,1.246509296923149e-05
521.10007372233474,3.3285178149617966e-05
521.14984579886971,5.3189714107749477e-05
521.19961787540467,7.2192670070923487e-05
521.24938995193963,9.0308015266437721e-05
521.2991620284746,0.00010754971892158998
521.34893410500956,0.0001239317502636785
521.39870618154441,0.0001394680785199658
521.44847825807938,0.00015417267291782107
521.49825033461434,0.00016805950268450527
521.5480224111493,0.00018114253704731606
521.59779448768427,0.00019343574523355176
521.64756656421923,0.00020495309647050968
521.6973386407542,0.00021570855998548751
521.74711071728916,0.00022571610500578347
521.79688279382412,0.00023498970075869479
521.84665487035909,0.00024354331647151949
521.89642694689405,0.00025139092137155527
521.94619902342902,0.00025854648468609986
521.99597109996398,0.00026502397564245097
522.04574317649895,0.0002708373634679065
522.09551525303391,0.00027600061738976424
522.14528732956887,0.00028052770663532174
522.19505940610384,0.00028443260043187652
522.2448314826388,0.00028772926800672681
522.29460355917377,0.00029043167858717041
522.34437563570862,0.00029255380140050046
522.39414771224358,0.00029410960567402452
522.44391978877854,0.00029511306063503492
522.49369186531351,0.0002955781355108294
522.54346394184847,0.00029551879952870576
522.59323601838344,0.00029494902191596153
522.6430080949184,0.00029388277189989462
522.69278017145336,0.00029233401870780283
522.74255224798833,0.00029031673156698401
522.79232432452329,0.00028784487970473553
522.84209640105826,0.00028493243234835547
522.89186847759322,0.00028159335872514151
522.94164055412818,0.00027784162806239118
522.99141263066315,0.00027369120958740261
523.04118470719811,0.00026915607252747323
523.09095678373308,0.00026425018610990109
523.14072886026804,0.00025898751956198362
523.19050093680301,0.00025338204211101885
523.24027301333786,0.00024744772298431828
523.29004508987282,0.00024119853140915239
523.33981716640778,0.00023464843661283257
523.38958924294275,0.00022781140782265612
523.43936131947771,0.00022070141426592095
523.48913339601268,0.00021333242516992484
523.53890547254764,0.00020571840976196568
523.5886775490826,0.00019787333726934081
523.63844962561757,0.00018981117691934855
523.68822170215253,0.00018154589793928599
523.7379937786875,0.00017309146955645139
523.78776585522246,0.00016446186099814257
523.83753793175742,0.00015567104149165687
523.88731000829239,0.00014673298026429213
523.93708208482735,0.00013766164654334639
523.98685416136232,0.00012847100955611719
524.03662623789728,0.00011917503852990204
524.08639831443224,0.00010978770269199915
524.13617039096721,0.00010032297126970607
524.18594246750206,9.0794813490342348e-05
524.23571454403702,8.1217198581162153e-05
524.28548662057199,7.1604095769485211e-05
524.33525869710695,6.1969474282608795e-05
524.38503077364192,5.232730334783096e-05
524.43480285017688,4.2691552192449475e-05
524.48457492671184,3.3076190043762058e-05
524.53434700324681,2.3495186129066401e-05
524.58411907978177,1.3962509675660305e-05
524.63389115631674,4.4921299108415078e-06
524.6836632328517,-4.9019839380923653e-06
524.73343530938666,-1.4205862643843433e-05
524.78320738592163,-2.3405536979113813e-05
524.83297946245659,-3.2487037716605978e-05
524.88275153899156,-4.1436395629022315e-05
524.93252361552652,-5.023964148906455e-05
524.98229569206148,-5.8882806069435263e-05
525.03206776859645,-6.7351920142836666e-05
525.0818398451313,-7.5633014481952461e-05
525.13161192166626,-8.3712119859522549e-05
525.18138399820123,-9.1575267048230117e-05
525.23115607473619,-9.9208486820777432e-05
525.28092815127116,-0.0001065978099498668
525.33070022780612,-0.00011372926720820025
525.38047230434108,-0.00012058888936848026
525.43024438087605,-0.00012716270720340901
525.48001645741101,-0.00013343675148568863
525.52978853394598,-0.00013939705298802156
525.57956061048094,-0.00014502964248310976
525.6293326870159,-0.00015032055074365593
525.67910476355087,-0.00015525580854236205
525.72887684008583,-0.00015982144665193033
525.7786489166208,-0.00016400349584506308
525.82842099315576,-0.00016778798689446253
525.87819306969072,-0.00017116095057283107
525.92796514622569,-0.00017410841765287064
525.97773722276065,-0.00017661641890728366
526.0275092992955,-0.00017867098510876843
526.07728137583047,-0.00018025814703003629
526.12705345236543,-0.00018136393544378431
526.17682552890039,-0.00018197438112271496
526.22659760543536,-0.00018207551483953035
526.27636968197032,-0.00018165336736693249
526.32614175850529,-0.00018069396947762418
526.37591383504025,-0.00017918335194430719
526.42568591157521,-0.00017710754553968395
526.47545798811018,-0.00017445258103645673
526.52523006464514,-0.00017120448920732772
526.57500214118011,-0.00016734930082499912
526.62477421771507,-0.00016287304666217332
526.67454629425004,-0.00015776175749155255
526.724318370785,-0.00015200146408583896
526.77409044731996,-0.00014557819721773479
526.82386252385493,-0.00013847798765994241
526.87363460038989,-0.00013068686618516393
526.92340667692474,-0.00012219086356612201
526.97317875345971,-0.0001129760105754799
527.02295082999467,-0.00010302833798595863
527.07272290652963,-9.2333876570260251e-05
527.1224949830646,-8.0878657101087241e-05
527.17226705959956,-6.8648710351141689e-05
527.22203913613453,-5.5630067093125822e-05
527.27181121266949,-4.1808758099742003e-05
527.32158328920445,-2.717081414369243e-05
527.37135536573942,-1.1702265997679331e-05
527.42112744227438,4.6108555655949312e-06
527.47089951880935,2.1782519773428321e-05
527.52067159534431,3.9826695853118393e-05
527.57044367187927,5.8757353031962977e-05
527.62021574841424,7.8596991750394743e-05
527.6699878249492,9.9907506395134759e-05
527.71975990148417,0.00012410307274084606
527.76953197801913,0.00015267311025791403
527.81930405455398,0.00018710703841663727
527.86907613108895,0.00022889427668755538
527.91884820762391,0.00027952424454098237
527.96862028415887,0.00034048636144730338
528.01839236069384,0.00041327004687690349
528.0681644372288,0.00049936472030016822
528.11793651376377,0.00060025980118748237
528.16770859029873,0.00071744470900923134
528.21748066683369,0.00085254493439160131
528.26725274336866,0.001015247481911528
528.31702481990362,0.0012276759738472638
528.36679689643859,0.0015130170143109909
528.41656897297355,0.0018944572074148928
528.46634104950851,0.0023951831572711522
528.51611312604348,0.0030383814679919509
528.56588520257844,0.0038472387436894722
528.61565727911341,0.0048449415884758984
528.66542935564837,0.0060546766064634126
528.71520143218333,0.0074996304017641994
528.76497350871819,0.0092029895784862328
528.81474558525315,0.011189915089434425
528.86451766178811,0.013545770959149068
528.91428973832308,0.016425708507055388
528.96406181485804,0.019988783369072033
529.01383389139301,0.024393251097162751
529.06360596792797,0.029674882097865181
529.11337804446293,0.03561632456252109
529.1631501209979,0.041968898636799264
529.21292219753286,0.048484665023285613
529.26269427406783,0.054964433719088601
529.31246635060279,0.06128716813054759
529.36223842713775,0.067338866884176118
529.41201050367272,0.073005657191211201
529.46178258020768,0.078195103405238386
529.51155465674265,0.082860013925224699
529.56132673327761,0.086958937379652074
529.61109880981257,0.090451481700528649
529.66087088634742,0.093373714604685687
529.71064296288239,0.095888298194583832
529.76041503941735,0.098169787017431204
529.81018711595232,0.10039121308079604
529.85995919248728,0.10266477199596639
529.90973126902225,0.10502266410649345
529.95950334555721,0.10749164518203881
530.00927542209217,0.11009847099226404
530.05904749862714,0.11286989730683075
530.1088195751621,0.1158326798954005
530.15859165169707,0.11901357452763489
530.20836372823203,0.12243933381774158
530.25813580476699,0.1261169333870911
530.30790788130196,0.12998670283440608
530.35767995783692,0.13397494777759003
530.40745203437189,0.13800796729594123
530.45722411090685,0.14200836565664288
530.50699618744181,0.14588889369883665
530.55676826397678,0.14956067750873531
530.60654034051163,0.15293484317254435
530.65631241704659,0.15592251677649227
530.70608449358156,0.15843482440678372
530.75585657011652,0.16038289214963153
530.80562864665148,0.16167784609124849
530.85540072318645,0.16223081231784739
530.90517279972141,0.16195291691564107
530.95494487625638,0.16075528597084235
531.00471695279134,0.15854937644317824
531.05448902932631,0.15535132295217213
531.10426110586127,0.15143060475992401
531.15403318239623,0.14709427420748022
531.2038052589312,0.14264842751425308
531.25357733546616,0.13827409612350425
531.30334941200113,0.13390420449618443
531.35312148853609,0.12944242997305364
531.40289356507105,0.12479252655047939
531.45266564160602,0.11992277903535713
531.50243771814087,0.11498328397490618
531.55220979467583,0.11015592596709432
531.6019818712108,0.10562239702629471
531.65175394774576,0.10151448781600689
531.70152602428072,0.097847827371355348
531.75129810081569,0.094621551227218034
531.80107017735065,0.091834794918472878
531.85084225388562,0.089486693979997811
531.90061433042058,0.087576383946670722
531.95038640695554,0.086103000353369555
532.00015848349051,0.085065678734972228
532.04993056002547,0.084461295191701535
532.09970263656044,0.084270254129231822
532.1494747130954,0.084465665167520396
532.19924678963037,0.085020605358963566
532.24901886616533,0.085908151755957604
532.29879094270029,0.087101381410898807
532.34856301923526,0.088573371376183554
532.39833509577011,0.090297198704203899
532.44810717230507,0.09224594044736413
532.49787924884004,0.094392673658056855
532.547651325375,0.096710475388678385
532.59742340190996,0.099172429175720167
532.64719547844493,0.10176062396772764
532.69696755497989,0.10448403666381738
532.74673963151486,0.10735664042482354
532.79651170804982,0.11039240841158027
532.84628378458478,0.11360531378492164
532.89605586111975,0.11700932970568174
532.94582793765471,0.1206184293346948
532.99560001418968,0.12444658580639698
533.04537209072464,0.12847153319126453
533.0951441672596,0.13252994396405979
533.14491624379457,0.13642417284373218
533.19468832032953,0.13995658398579439
533.2444603968645,0.14298681300689484
533.29423247339946,0.14556711883751203
533.34400454993431,0.1477902132795488
533.39377662646928,0.14974880813492267
533.44354870300424,0.15153561520553577
533.4933207795392,0.1532433462932955
533.54309285607417,0.15496471320010949
533.59286493260913,0.15679242772788529
533.6426370091441,0.15880029936473966
533.69240908567906,0.1609756011736963
533.74218116221402,0.16328085670060707
533.79195323874899,0.16567858752156034
533.84172531528395,0.16813279479338925
533.89149739181892,0.17061831031954464
533.94126946835388,0.17311477968591205
533.99104154488884,0.17560187032941024
534.04081362142381,0.17805924968695805
534.09058569795877,0.18046658519547418
534.14035777449374,0.18280354429187742
534.1901298510287,0.18504979441308642
534.23990192756355,0.18718500299601543
534.28967400409852,0.1891888374775928
534.33944608063348,0.19104096529473227
534.38921815716844,0.19272105388435273
534.43899023370341,0.19421137890943427
534.48876231023837,0.19551920493348623
534.53853438677334,0.19666570181046514
534.5883064633083,0.19767218921657403
534.63807853984326,0.19855998682801582
534.68785061637823,0.19935041432099351
534.73762269291319,0.20006479137171013
534.78739476944816,0.20072443765636874
534.83716684598312,0.20135067285117206
534.88693892251808,0.20196481663232346
534.93671099905305,0.20258818867602557
534.98648307558801,0.20324210865848166
535.03625515212298,0.20394665515417063
535.08602722865794,0.20470471431819418
535.1357993051929,0.20550660877839694
535.18557138172775,0.20634237448736734
535.23534345826272,0.20720204739769923
535.28511553479768,0.20807566346198092
535.33488761133265,0.2089532586328027
535.38465968786761,0.20982486886275467
535.43443176440258,0.210680530104427
535.48420384093754,0.21151027831040983
535.5339759174725,0.21230414943329337
535.58374799400747,0.2130521794256679
535.63352007054243,0.21374456030916017
535.6832921470774,0.21437364818787966
535.73306422361236,0.21493338165762471
535.78283630014732,0.21541773548114868
535.83260837668229,0.2158206844212045
535.88238045321725,0.21613620324054558
535.93215252975222,0.2163582667019249
535.98192460628718,0.21648084956809574
536.03169668282214,0.21649792660181125
536.08146875935699,0.21640347256582496
536.13124083589196,0.21619146222288954
536.18101291242692,0.21585587033575837
536.23078498896189,0.21538690281429745
536.28055706549685,0.21471817629375956
536.33032914203181,0.21373964437665138
536.38010121856678,0.2123401316804415
536.42987329510174,0.21041574955526013
536.47964537163671,0.20796649111014301
536.52941744817167,0.2050697634123371
536.57918952470663,0.20180482276834061
536.6289616012416,0.19825017102049275
536.67873367777656,0.19447764845573931
536.72850575431153,0.19055562471221402
536.77827783084649,0.18655243950927758
536.82804990738146,0.18253643256629062
536.87782198391642,0.17857594360261367
536.92759406045138,0.17473931233760731
536.97736613698635,0.17109487849063224
537.0271382135212,0.16770727800632138
537.07691029005616,0.16457728074778349
537.12668236659113,0.16165177913934758
537.17645444312609,0.15887597769134565
537.22622651966105,0.15619570017759102
537.27599859619602,0.15358513510512461
537.32577067273098,0.15105801223904664
537.37554274926595,0.14863099352858883
537.42531482580091,0.14632074092298294
537.47508690233587,0.14414391637146076
537.52485897887084,0.14211718182325411
537.5746310554058,0.1402571992275948
537.62440313194077,0.13857788069539984
537.67417520847573,0.13702920155786225
537.72394728501069,0.1354968143870387
537.77371936154566,0.13386354471991221
537.82349143808062,0.13201319120473504
537.87326351461559,0.12990558876311567
537.92303559115044,0.1276298828538871
537.9728076676854,0.12528779801499015
538.02257974422037,0.12297623624044898
538.07235182075533,0.12072366536343865
538.12212389729029,0.11850771507631318
538.17189597382526,0.11630480947936553
538.22166805036022,0.11409243122160599
538.27144012689519,0.11188688111947091
538.32121220343015,0.10975357657441613
538.37098427996511,0.1077610890366212
538.42075635650008,0.10597787430222518
538.47052843303504,0.1044490876756512
538.52030050957001,0.10316848385163419
538.57007258610497,0.10212295258717266
538.61984466263993,0.10129938363926511
538.6696167391749,0.10068466676491013
538.71938881570986,0.10026569172110614
538.76916089224483,0.1000293482648518
538.81893296877979,0.099962530464230981
538.86870504531464,0.10005246055472003
538.91847712184961,0.10028691401806934
538.96824919838457,0.10065371954894237
539.01802127491953,0.10114070584200245
539.0677933514545,0.101735701591913
539.11756542798946,0.10242653549333743
539.16733750452443,0.10320103624093915
539.21710958105939,0.10404703252938154
539.26688165759435,0.10495235305332798
539.31665373412932,0.10590482650744193
539.36642581066428,0.10689228158638674
539.41619788719925,0.10790279309419405
539.46596996373421,0.10893024794383292
539.51574204026917,0.10997443064449269
539.56551411680414,0.1110353889133301
539.6152861933391,0.11211317046750183
539.66505826987407,0.11320782302416461
539.71483034640903,0.11431939430047523
539.76460242294388,0.11544793201358779
539.81437449947884,0.11659348388066416
539.86414657601381,0.11775609761885857
539.91391865254877,0.11893582094532767
539.96369072908374,0.12013270157722826
540.0134628056187,0.12134678662761639
540.06323488215367,0.12257809010825885
540.11300695868863,0.12382657645482163
540.16277903522359,0.12509220603443752
540.21255111175856,0.12637493921423923
540.26232318829352,0.12767473636135951
540.31209526482849,0.12899155784293104
540.36186734136345,0.13032536402608649
540.41163941789841,0.13167611527795872
540.46141149443338,0.13304377196568032
540.51118357096834,0.1344282944563841
540.56095564750331,0.13582964311720272
540.61072772403827,0.13724759906883968
540.66049980057323,0.13867780820253695
540.71027187710808,0.14011177418934956
540.76004395364305,0.14154082005576721
540.80981603017801,0.14295626882827001
540.85958810671298,0.144349443533341
540.90936018324794,0.14571166719746351
540.9591322597829,0.14703426284712073
541.00890433631787,0.1483085535589676
541.05867641285283,0.1495281088830305
541.1084484893878,0.15069473679792664
541.15822056592276,0.15181213333044566
541.20799264245773,0.15288399450737705
541.25776471899269,0.15391401635551047
541.30753679552765,0.15490589490163548
541.35730887206262,0.15586332617254167
541.40708094859758,0.15679000619501857
541.45685302513255,0.15768963099585581
541.50662510166751,0.15856589660184298
541.55639717820247,0.15942249903976966
541.60616925473732,0.16026313433642339
541.65594133127229,0.16109149851859772
541.70571340780725,0.1619112876130803
541.75548548434222,0.16272619764666063
541.80525756087718,0.16353992464612838
541.85502963741214,0.16435616463827304
541.90480171394711,0.16517861364988423
541.95457379048207,0.16601096770775151
542.00434586701704,0.16685692283866452
542.054117943552,0.16772017506941272
542.10389002008696,0.16860442042678586
542.15366209662193,0.1695133549375733
542.20343417315689,0.17045067489012286
542.25320624969186,0.17142246132636829
542.30297832622682,0.17244300235593221
542.35275040276179,0.17352835026109037
542.40252247929675,0.1746945573241184
542.45229455583171,0.1759576758272921
542.50206663236668,0.17733375805288717
542.55183870890153,0.17883885628317578
542.60161078543649,0.18048902280044046
542.65138286197146,0.18229122452560775
542.70115493850642,0.18419779111172782
542.75092701504138,0.18614072433120102
542.80069909157635,0.18805201356354842
542.85047116811131,0.1898776063092468
542.90024324464628,0.19160137600874713
542.95001532118124,0.19321357632469705
542.9997873977162,0.19470446091974408
543.04955947425117,0.19606428345653593
543.09933155078613,0.19728329759771993
543.1491036273211,0.1983517570059439
543.19887570385606,0.19925991534385526
543.24864778039102,0.1999980262741016
543.29841985692599,0.2005563434593306
543.34819193346095,0.2009251205621897
543.39796400999592,0.2010946112453266
543.44773608653077,0.20105948527028369
543.49750816306573,0.2008324999968962
543.5472802396007,0.2004310430077284
543.59705231613566,0.19987250188756703
543.64682439267062,0.19917426422119908
543.69659646920559,0.19835371759341136
543.74636854574055,0.19742824958899069
543.79614062227552,0.19641524779272404
543.84591269881048,0.19533209978939825
543.89568477534544,0.19419619316380016
543.94545685188041,0.19302491550071671
543.99522892841537,0.19183565438493477
544.04500100495034,0.1906438665294129
544.0947730814853,0.18945216588349953
544.14454515802026,0.18825792495550156
544.19431723455523,0.18705850075440311
544.24408931109019,0.18585125028918784
544.29386138762516,0.18463353056883972
544.34363346416012,0.18340269860234248
544.39340554069497,0.18215611139868298
544.44317761722994,0.18089112596683921
544.4929496937649,0.17960509931579793
544.54272177029986,0.17829538845454301
544.59249384683483,0.17695935039205826
544.64226592336979,0.17559490566350661
544.69203799990476,0.17420237339232425
544.74181007643972,0.17278271075546861
