energy,intensity
444.99817677254049,-0.0027542298651626789
445.01814455937176,-0.002722857810694966
445.03811234620298,-0.0026916701009011661
445.05808013303425,-0.0026606662688417873
445.07804791986553,-0.0026298458475776001
445.09801570669674,-0.0025992083701693786
445.11798349352802,-0.0025687533696776305
445.13795128035929,-0.0025384803791631281
445.15791906719051,-0.0025083889316866404
445.17788685402178,-0.0024784785603086819
445.19785464085305,-0.00244874879809002
445.21782242768433,-0.0024191991780913411
445.23779021451554,-0.0023898292333734104
445.25775800134682,-0.0023606384969967462
445.27772578817809,-0.0023316265020221173
445.2976935750093,-0.0023027927815102876
445.31766136184058,-0.0022741368685217788
445.33762914867185,-0.0022456582961173561
445.35759693550307,-0.0022173565973577845
445.37756472233434,-0.0021892313053035873
445.39753250916561,-0.0021612819530155286
445.41750029599683,-0.0021335080735543723
445.4374680828281,-0.0021059091999806431
445.45743586965938,-0.0020784848653551046
445.47740365649059,-0.0020512346027385204
445.49737144332187,-0.0020241579451914164
445.51733923015314,-0.0019972544257745571
445.53730701698441,-0.0019705235775486249
445.55727480381563,-0.0019439649335743795
445.5772425906469,-0.0019175780269123542
445.59721037747818,-0.0018913623906233093
445.61717816430939,-0.0018653175577680022
445.63714595114067,-0.0018394430614069681
445.65711373797194,-0.0018137384346009675
445.67708152480316,-0.0017882032104107547
445.69704931163443,-0.0017628369218968705
445.7170170984657,-0.0017376391021200702
445.73698488529692,-0.0017126092841411088
445.75695267212819,-0.0016877470010205299
445.77692045895947,-0.0016630517858190871
445.79688824579068,-0.0016385231715975352
445.81685603262196,-0.0016141606914164184
445.83682381945323,-0.0015899638783364906
445.8567916062845,-0.0015659322654184358
445.87675939311572,-0.0015420653857230067
445.89672717994699,-0.0015183627723107506
445.91669496677827,-0.0014948239582424207
445.93666275360948,-0.0014714484765787656
445.95663054044076,-0.0014482358603803383
445.97659832727203,-0.0014251856427078895
445.99656611410325,-0.001402297356622167
446.01653390093452,-0.0013795705351837256
446.03650168776579,-0.0013570047114533138
446.05646947459701,-0.0013345994184916798
446.07643726142828,-0.0013123541893593806
446.09640504825956,-0.001290268557117164
446.11637283509077,-0.0012683420548257763
446.13634062192205,-0.0012465742155457768
446.15630840875332,-0.0012249645723379117
446.17627619558459,-0.001203512658262866
446.19624398241581,-0.0011822180063813833
446.21621176924708,-0.0011610801497540272
446.23617955607835,-0.0011400986214415421
446.25614734290957,-0.0011192729545046718
446.27611512974084,-0.001098602682003981
446.29608291657212,-0.0010780873370002143
446.31605070340333,-0.0010577264525541126
446.33601849023461,-0.0010375195617262445
446.35598627706588,-0.0010174661975773526
446.3759540638971,-0.00099756589316817674
446.39592185072837,-0.00097781818155928853
446.41588963755964,-0.00095822259581142808
446.43585742439086,-0.00093877866898533515
446.45582521122213,-0.00091948593414158326
446.47579299805341,-0.0009003439243409116
446.49576078488468,-0.00088135217264400495
446.5157285717159,-0.00086251021211160002
446.53569635854717,-0.00084381757580427391
446.55566414537844,-0.0008252737967827657
446.57563193220966,-0.00080687840810780994
446.59559971904093,-0.00078863094283998622
446.61556750587221,-0.00077053093404003267
446.63553529270342,-0.00075257791476868326
446.6555030795347,-0.00073477141808651902
446.67547086636597,-0.0007171109770542773
446.69543865319719,-0.00069959612473269024
446.71540644002846,-0.00068222639418234299
446.73537422685973,-0.00066500131846396985
446.75534201369095,-0.00064792043063830287
446.77530980052222,-0.00063098326376592935
446.7952775873535,-0.00061418935090758176
446.81524537418471,-0.0005975382251239916
446.83521316101599,-0.00058102941947574867
446.85518094784726,-0.00056466246702358371
446.87514873467853,-0.00054843690082818127
446.89511652150975,-0.00053235225395027101
446.91508430834102,-0.00051640805945044586
446.9350520951723,-0.00050060385038943559
446.95501988200351,-0.00048493915982796893
446.97498766883479,-0.00046941352082663997
446.99495545566606,-0.00045402646644617829
447.01492324249728,-0.00043877752974731151
447.03489102932855,-0.00042366624379063612
447.05485881615982,-0.00040869214163688044
447.07482660299104,-0.00039385475634677076
447.09479438982231,-0.00037915362098090604
447.11476217665358,-0.000364588268600013
447.1347299634848,-0.0003501582322648168
447.15469775031607,-0.00033586304503591927
447.17466553714735,-0.00032170223997404605
447.19463332397862,-0.00030767535013988099
447.21460111080984,-0.00029378190859414774
447.23456889764111,-0.00028002144839745099
447.25453668447238,-0.00026639350261051486
447.2745044713036,-0.00025289760429406149
447.29447225813487,-0.00023953328650869846
447.31444004496615,-0.00022630008231514791
447.33440783179736,-0.00021319752477413204
447.35437561862864,-0.00020022514694625923
447.37434340545991,-0.00018738248189225187
447.39431119229113,-0.00017466906267282948
447.4142789791224,-0.00016208442234860406
447.43424676595367,-0.00014962809398029659
447.45421455278489,-0.0001372996106286251
447.47418233961616,-0.00012509850535420415
447.49415012644744,-0.00011302431121775309
447.51411791327871,-0.00010107656127995583
447.53408570010993,-8.9254788601529641e-05
447.5540534869412,-7.7558526243092307e-05
447.57402127377247,-6.598730726536085e-05
447.59398906060369,-5.4540664729052539e-05
447.61395684743496,-4.3218131694785406e-05
447.63392463426624,-3.2019241223277132e-05
447.65389242109745,-2.0943526375242533e-05
447.67386020792873,-9.990520211302755e-06
447.69382799476,8.4024420782607817e-07
447.71379578159122,1.1549233821429609e-05
447.73376356842249,2.2136915568884691e-05
447.75373135525376,3.2603756389476944e-05
447.77369914208498,4.2950223222492269e-05
447.79366692891625,5.3176783007305946e-05
447.81363471574753,6.3283902683204264e-05
447.8336025025788,7.3272049189503517e-05
447.85357028941002,8.314168946549069e-05
447.87353807624129,9.2893290450538383e-05
447.89350586307256,0.00010252731908393446
447.91347364990378,0.00011204424230496751
447.93344143673505,0.00012144452705300786
447.95340922356633,0.0001307286402673439
447.97337701039754,0.00013989704888726619
447.99334479722881,0.0001489502198521421
448.01331258406009,0.00015788862010126099
448.0332803708913,0.00016671271657391502
448.05324815772258,0.00017542297620946963
448.07321594455385,0.00018401986594721541
448.09318373138507,0.00019250385272644413
448.11315151821634,0.00020087540348652031
448.13311930504761,0.00020913498516673555
448.15308709187889,0.00021728306470640508
448.1730548787101,0.0002253201090448231
448.19302266554138,0.00023324658512135073
448.21299045237265,0.00024106295987528047
448.23295823920387,0.00024876970024590697
448.25292602603514,0.00025636727317258998
448.27289381286641,0.00026385614559462319
448.29286159969763,0.00027123678445130199
448.3128293865289,0.00027850965668198323
448.33279717336018,0.00028567522922596242
448.35276496019139,0.00029273396902253609
448.37273274702267,0.00029968634301105919
448.39270053385394,0.0003065328181308281
448.41266832068516,0.00031327386132113928
448.43263610751643,0.00031990993952134717
448.4526038943477,0.00032644151967074856
448.47257168117892,0.00033286906870864025
448.49253946801019,0.00033919305357437606
448.51250725484147,0.00034541394120725285
448.53247504167274,0.00035153219854658596
448.55244282850396,0.00035754829253167533
448.57241061533523,0.00036346269010187029
448.5923784021665,0.00036927585819646985
448.61234618899772,0.00037498826375477403
448.63231397582899,0.00038060037371613056
448.65228176266027,0.00038611265501983951
448.67224954949148,0.00039152557460520135
448.69221733632276,0.00039683959941156245
448.71218512315403,0.00040205519637822392
448.73215290998525,0.00040717283244448647
448.75212069681652,0.00041219297454969553
448.77208848364779,0.00041711608963315228
448.79205627047901,0.00042194264463415868
448.81202405731028,0.00042667310649205858
448.83199184414156,0.00043130794214615376
448.85195963097283,0.00043584761853575999
448.87192741780405,0.00044029260260018064
448.89189520463532,0.00044464336127875728
448.91186299146659,0.00044890036151079278
448.93183077829781,0.00045306407023559142
448.95179856512908,0.00045713495439249276
448.97176635196035,0.00046111348092080039
448.99173413879157,0.00046500011675981978
449.01170192562284,0.00046879532884888875
449.03166971245412,0.00047249958412731187
449.05163749928533,0.00047611334953439471
449.07160528611661,0.00047963709200947441
449.09157307294788,0.000483071278491856
449.1115408597791,0.00048641637592084587
449.13150864661037,0.00048967285123577926
449.15147643344164,0.0004928411713759623
449.17144422027292,0.00049592180328071091
449.19141200710413,0.0004989152138893323
449.21137979393541,0.00050182187014115992
449.23134758076668,0.00050464223897550076
449.2513153675979,0.00050737678733166289
449.27128315442917,0.00051002598214897803
449.29125094126044,0.00051259029036675413
449.31121872809166,0.00051507017892430014
449.33118651492293,0.0005174661147609456
449.35115430175421,0.00051977856481600011
449.37112208858542,0.00052200799602877303
449.3910898754167,0.00052415487533859261
449.41105766224797,0.00052621966968476822
449.43102544907919,0.00052820284600661109
449.45099323591046,0.00053010487124344685
449.47096102274173,0.00053192621233458747
449.49092880957301,0.00053366733621934732
449.51089659640422,0.00053532870983703915
449.5308643832355,0.00053691080012698684
449.55083217006677,0.00053841407402850238
449.57079995689799,0.00053983899848089741
449.59076774372926,0.00054118604042349585
449.61073553056053,0.00054245566679560957
449.63070331739175,0.00054364834453655118
449.65067110422302,0.00054476454058564341
449.6706388910543,0.00054580472188219854
449.69060667788551,0.00054676935536552987
449.71057446471679,0.00054765890797495848
449.73054225154806,0.00054847384664979829
449.75051003837928,0.00054921463832936226
449.77047782521055,0.00054988174995297104
449.79044561204182,0.00055047564845993834
449.8104133988731,0.00055099680078957928
449.83038118570431,0.00055144567388120975
449.85034897253558,0.00055182273467414746
449.87031675936686,0.00055212845010770668
449.89028454619807,0.00055236328712120349
449.91025233302935,0.00055252771265395498
449.93022011986062,0.00055262219364527582
449.95018790669184,0.00055264719703448234
449.97015569352311,0.00055260318976088987
449.99012348035438,0.00055249063876381516
450.0100912671856,0.00055231001098257431
450.03005905401687,0.00055206177335648211
450.05002684084815,0.00055174639282485466
450.06999462767936,0.00055136433632700925
450.08996241451064,0.00055091607080226003
450.10993020134191,0.00055040206318992299
450.12989798817318,0.00054982278042931497
450.1498657750044,0.00054917868945975317
450.16983356183567,0.00054847025722054967
450.18980134866695,0.00054769795065102284
450.20976913549816,0.0005468622366904903
450.22973692232944,0.0005459635822782638
450.24970470916071,0.00054500245435366119
450.26967249599193,0.00054397931985600148
450.2896402828232,0.00054289464572459449
450.30960806965447,0.00054174889889875945
450.32957585648569,0.00054054254631781518
450.34954364331696,0.00053927605492107126
450.36951143014824,0.00053794989164784618
450.38947921697945,0.0005365645234374607
450.40944700381073,0.00053512041722922246
450.429414790642,0.00053361803996245113
450.44938257747322,0.00053205785857646747
450.46935036430449,0.00053044034001057793
450.48931815113576,0.00052876595120410327
450.50928593796704,0.00052703515909635938
450.52925372479825,0.00052524843062666667
450.54922151162953,0.00052340623273433172
450.5691892984608,0.00052150903235867517
450.58915708529202,0.00051955729643901822
450.60912487212329,0.00051755149191466589
450.62909265895456,0.00051549208572493962
450.64906044578578,0.00051337954480916122
450.66902823261705,0.00051121433610663456
450.68899601944833,0.00050899692655668181
450.70896380627954,0.0005067277830986249
450.72893159311081,0.00050440737267176726
450.74889937994209,0.00050203616221543106
450.7688671667733,0.000499614618668939
450.78883495360458,0.00049714320897159341
450.80880274043585,0.00049462240006271658
450.82877052726712,0.00049205265888162503
450.84873831409834,0.00048943445236764157
450.86870610092961,0.0004867682474600673
450.88867388776089,0.00048405451109822601
450.9086416745921,0.00048129371022144105
450.92860946142338,0.00047848631176901287
450.94857724825465,0.00047563278268026481
450.96854503508587,0.00047273358989452144
450.98851282191714,0.00046978920035108205
451.00848060874841,0.00046680008098927037
451.02844839557963,0.00046376669874841157
451.0484161824109,0.00046068952056780394
451.06838396924218,0.00045756901338677201
451.08835175607339,0.00045440564414464074
451.10831954290467,0.00045119987978070803
451.12828732973594,0.0004479521872342987
451.14825511656721,0.00044466303344472863
451.16822290339843,0.0004413328853513233
451.1881906902297,0.00043796220989337971
451.20815847706098,0.00043455147401022303
451.22812626389219,0.00043110114464117927
451.24809405072347,0.0004276116887255442
451.26806183755474,0.00042408357320264405
451.28802962438596,0.00042051726501180447
451.30799741121723,0.00041691323109232153
451.3279651980485,0.00041327193838352062
451.34793298487972,0.00040959385382472884
451.36790077171099,0.00040587944435524053
451.38786855854227,0.00040212917691438249
451.40783634537348,0.00039834351844148099
451.42780413220476,0.00039452293587583073
451.44777191903603,0.00039066789615675826
451.4677397058673,0.00038677886622357925
451.48770749269852,0.00038285631301562134
451.50767527952979,0.00037890070347217737
451.52764306636107,0.00037491250453257482
451.54761085319228,0.00037089218313614091
451.56757864002356,0.00036684020622216907
451.58754642685483,0.00036275704072998602
451.60751421368604,0.00035864315359891951
451.62748200051732,0.00035449901176826229
451.64744978734859,0.00035032508217734172
451.66741757417981,0.00034612183176548593
451.68738536101108,0.00034188972747198641
451.70735314784235,0.00033762923623617135
451.72732093467357,0.00033334082499736909
451.74728872150484,0.00032902496069487058
451.76725650833612,0.00032468211026800427
451.78722429516733,0.00032031274065609836
451.80719208199861,0.000315917318798444
451.82715986882988,0.00031149631163436938
451.84712765566115,0.00030705018610319032
451.86709544249237,0.00030257940914423572
451.88706322932364,0.00029808444769679587
451.90703101615492,0.00029356576870019928
451.92699880298613,0.00028902383909377516
451.94696658981741,0.00028445912581681317
451.96693437664868,0.00027987209580864218
451.9869021634799,0.00027526321600859121
452.00686995031117,0.00027063295335595021
452.02683773714244,0.00026598177479004786
452.04680552397366,0.00026131014725021333
452.06677331080493,0.00025661853767573625
452.08674109763621,0.00025190741300594552
452.10670888446742,0.00024717724018017052
452.1266766712987,0.00024242848613770051
452.14664445812997,0.0002376616178178644
452.16661224496124,0.00023287710215997849
452.18658003179246,0.00022807540610337215
452.20654781862373,0.00022325699658733378
452.22651560545501,0.00021842234055119322
452.24648339228622,0.00021357190493428017
452.2664511791175,0.00020870615667588284
452.28641896594877,0.00020382556271533083
452.30638675277999,0.00019893058999195418
452.32635453961126,0.00019402170544504069
452.34632232644253,0.0001890993760139203
452.36629011327375,0.00018416406863792296
452.38625790010502,0.00017921625025633643
452.4062256869363,0.00017425638780849083
452.42619347376751,0.00016928494823371587
452.44616126059879,0.00016430239847129951
452.46612904743006,0.00015930920546057146
452.48609683426133,0.00015430583614084784
452.50606462109255,0.00014929275745145885
452.52603240792382,0.00014427043633169159
452.54600019475509,0.0001392393397208765
452.56596798158631,0.0001341999345583436
452.58593576841758,0.0001291526877833803
452.60590355524886,0.00012409806633531675
452.62587134208007,0.00011903653715348325
452.64583912891135,0.00011396856717716677
452.66580691574262,0.00010889462334569787
452.68577470257384,0.00010381517259840678
452.70574248940511,9.873068187458029e-05
452.72571027623638,9.364161811354908e-05
452.7456780630676,8.8548448254643263e-05
452.76564584989887,8.3451639237149851e-05
452.78561363673015,7.8351658000399389e-05
452.80558142356142,7.3248971483707567e-05
452.82554921039264,6.8144046626404767e-05
452.84551699722391,6.3037350367778111e-05
452.86548478405518,5.7929349647157792e-05
452.8854525708864,5.2820511403874244e-05
452.90542035771767,4.7711302577214482e-05
452.92538814454895,4.2602190106508616e-05
452.94535593138016,3.7493640931087434e-05
452.96532371821144,3.2386121990237462e-05
452.98529150504271,2.7280100223289408e-05
453.00525929187393,2.2176042569573381e-05
453.0252270787052,1.7074415968376531e-05
453.04519486553647,1.1975687359029103e-05
453.06516265236769,6.8803236808615074e-06
453.08513043919896,1.7887918731606214e-06
453.10509822603024,-3.2984411247430378e-06
453.12506601286145,-8.380908373519251e-06
453.14503379969273,-1.3458142933880923e-05
453.165001586524,-1.8529677866497754e-05
453.18496937335527,-2.3595046232053972e-05
453.20493716018649,-2.865378109121906e-05
453.22490494701776,-3.370541550470603e-05
453.24487273384904,-3.8749482533184556e-05
453.26484052068025,-4.3785515237324446e-05
453.28480830751153,-4.8813046677838415e-05
453.3047760943428,-5.3831609915396407e-05
453.32474388117402,-5.8840738010668012e-05
453.34471166800529,-6.3839964024366028e-05
453.36467945483656,-6.8828821017160262e-05
453.38464724166778,-7.3806842049720578e-05
453.40461502849905,-7.8773560182759472e-05
453.42458281533033,-8.3728508476947026e-05
453.4445506021616,-8.8671219992966977e-05
453.46451838899281,-9.3601227791489786e-05
453.48448617582409,-9.8518064933227355e-05
453.50445396265536,-0.00010342126447884984
453.52442174948658,-0.00010831035948902744
453.54438953631785,-0.00011318488302447215
453.56435732314912,-0.00011804436814585408
453.58432510998034,-0.0001228883479138436
453.60429289681161,-0.00012771635538915229
453.62426068364289,-0.00013252792363245059
453.6442284704741,-0.00013732258570440885
453.66419625730538,-0.00014209987466573851
453.68416404413665,-0.00014685932357711004
453.70413183096787,-0.00015160046549919415
453.72409961779914,-0.00015632283349270175
453.74406740463041,-0.00016102596061830346
453.76403519146163,-0.0001657093799366702
453.7840029782929,-0.00017037262450851263
453.80397076512418,-0.0001750152273945016
453.82393855195545,-0.000179636721655321
453.84390633878667,-0.00018423664035164216
453.86387412561794,-0.00018881451654417515
453.88384191244921,-0.00019336988329359103
453.90380969928043,-0.00019790227366056103
453.9237774861117,-0.00020241122070579505
453.94374527294298,-0.00020689625748996425
453.96371305977419,-0.00021135691707374016
453.98368084660547,-0.00021579273251783217
454.00364863343674,-0.00022020323688291154
454.02361642026796,-0.00022458796322965023
454.04358420709923,-0.00022894644461875701
454.0635519939305,-0.0002332782141109038
454.08351978076172,-0.00023758280476676214
454.10348756759299,-0.00024185974964704084
454.12345535442427,-0.00024610858181241182
454.14342314125554,-0.00025032883432355883
454.16339092808676,-0.00025452004024115421
454.18335871491803,-0.0002586817326259062
454.2033265017493,-0.00026281344453848657
454.22329428858052,-0.00026691470903956798
454.24326207541179,-0.00027098505918985794
454.26322986224307,-0.00027502402805002873
454.28319764907428,-0.0002790311486807531
454.30316543590556,-0.00028300595414273798
454.32313322273683,-0.00028694797749665601
454.34310100956804,-0.00029085675180318008
454.36306879639932,-0.00029473181012301691
454.38303658323059,-0.00029857268551683903
454.40300437006181,-0.00030237891104532009
454.42297215689308,-0.00030615001976916562
454.44293994372435,-0.00030988554474904891
454.46290773055563,-0.00031358501904565417
