energy,intensity
520.00508803856565,-0.00049040705312023943
520.05486011510061,-0.00045623404328743719
520.10463219163557,-0.00042300744067746981
520.15440426817054,-0.00039071659944554853
520.2041763447055,-0.00035935087374688461
520.25394842124047,-0.00032889961773668901
520.30372049777543,-0.00029935218557017339
520.35349257431039,-0.00027069793140254876
520.40326465084536,-0.00024292620938902627
520.45303672738032,-0.00021602637368481716
520.50280880391517,-0.00018998777844519139
520.55258088045014,-0.00016479977782524099
520.6023529569851,-0.00014045172598023761
520.65212503352006,-0.00011693297706539268
520.70189711005503,-9.4232885235917232e-05
520.75166918658999,-7.2340804647022557e-05
520.80144126312496,-5.1246089453920064e-05
520.85121333965992,-3.0938093811820543e-05
520.90098541619489,-1.1406171875935634e-05
520.95075749272985,7.3603221985236509e-06
521.00052956926481,2.5372034256346058e-05
521.05030164579978,4.2639610142320405e-05
521.10007372233474,5.917369570123536e-05
521.14984579886971,7.4984936777879876e-05
521.19961787540467,9.0083979217042478e-05
521.24938995193963,0.00010448146886351219
521.2991620284746,0.00011818805156207769
521.34893410500956,0.00013121437315752774
521.39870618154441,0.00014357107949462353
521.44847825807938,0.00015526881641821062
521.49825033461434,0.00016631822977304853
521.5480224111493,0.00017672996540392608
521.59779448768427,0.00018651466915563193
521.64756656421923,0.00019568298687295521
521.6973386407542,0.0002042455644006844
521.74711071728916,0.00021221304758360835
521.79688279382412,0.00021959608226651596
521.84665487035909,0.00022640531429419589
521.89642694689405,0.00023265138951143673
521.94619902342902,0.00023834495376302763
521.99597109996398,0.00024349665289375723
522.04574317649895,0.00024811713274841432
522.09551525303391,0.00025221703917178756
522.14528732956887,0.00025580701800866572
522.19505940610384,0.00025889771510383781
522.2448314826388,0.00026149977630209238
522.29460355917377,0.00026362384744821836
522.34437563570862,0.00026528057438700129
522.39414771224358,0.00026648060296323732
522.44391978877854,0.00026723457902171104
522.49369186531351,0.00026755314840721107
522.54346394184847,0.00026744695696452652
522.59323601838344,0.00026692665053844582
522.6430080949184,0.00026600287497375794
522.69278017145336,0.00026468627611525168
522.74255224798833,0.00026298749980771562
522.79232432452329,0.00026091719189593881
522.84209640105826,0.0002584859982247099
522.89186847759322,0.00025570456463881768
522.94164055412818,0.00025258353698305076
522.99141263066315,0.0002491335611021983
523.04118470719811,0.0002453652828410487
523.09095678373308,0.00024128934804439086
523.14072886026804,0.00023691640255701379
523.19050093680301,0.00023225709222370581
523.24027301333786,0.00022732206288926768
523.29004508987282,0.00022212196039846538
523.33981716640778,0.00021666743059609896
523.38958924294275,0.0002109691193269569
523.43936131947771,0.00020503767243582787
523.48913339601268,0.00019888373576750095
523.53890547254764,0.00019251795516676503
523.5886775490826,0.00018595097647840846
523.63844962561757,0.00017919344554722004
523.68822170215253,0.00017225600821798909
523.7379937786875,0.00016514931033550378
523.78776585522246,0.00015788399774455339
523.83753793175742,0.0001504707162899262
523.88731000829239,0.00014292011181641148
523.93708208482735,0.00013524283016879752
523.98685416136232,0.00012744951719187358
524.03662623789728,0.00011955081873042816
524.08639831443224,0.00011155738062925005
524.13617039096721,0.00010347984873312808
524.18594246750206,9.5328868886869673e-05
524.23571454403702,8.7115086935226442e-05
524.28548662057199,7.8849148723005662e-05
524.33525869710695,7.0541700094996096e-05
524.38503077364192,6.2203386895986535e-05
524.43480285017688,5.3844854970765797e-05
524.48457492671184,4.5476750164122508e-05
524.53434700324681,3.7109718320845595e-05
524.58411907978177,2.8754405285723895e-05
524.63389115631674,2.0421456903546027e-05
524.6836632328517,1.2121519019100879e-05
524.73343530938666,3.8652374771770436e-06
524.78320738592163,-4.3367418774363419e-06
524.83297946245659,-1.2473773199950962e-05
524.88275153899156,-2.0535210645577643e-05
524.93252361552652,-2.8510408369527728e-05
524.98229569206148,-3.6388720527012476e-05
525.03206776859645,-4.4159501273243036e-05
525.0818398451313,-5.1812104763413437e-05
525.13161192166626,-5.9335885152769827e-05
525.18138399820123,-6.6720196596505539e-05
525.23115607473619,-7.3954393249832387e-05
525.28092815127116,-8.1027829267960977e-05
525.33070022780612,-8.792985880610283e-05
525.38047230434108,-9.4649836019469115e-05
525.43024438087605,-0.00010117711506327107
525.48001645741101,-0.00010750105009271997
525.52978853394598,-0.00011361099526302688
525.57956061048094,-0.00011949630472940312
525.6293326870159,-0.00012514633264705999
525.67910476355087,-0.00013055043317120857
525.72887684008583,-0.00013569796045706016
525.7786489166208,-0.00014057826865982589
525.82842099315576,-0.00014518071193471706
525.87819306969072,-0.00014949464443694496
525.92796514622569,-0.00015350942032172057
525.97773722276065,-0.00015721439374425538
526.0275092992955,-0.00016059891885975312
526.07728137583047,-0.00016365234982344053
526.12705345236543,-0.00016636404079052068
526.17682552890039,-0.00016872334591620482
526.22659760543536,-0.00017071961935570423
526.27636968197032,-0.00017234221526423002
526.32614175850529,-0.00017358048779699355
526.37591383504025,-0.00017442379110920581
526.42568591157521,-0.00017486147935607827
526.47545798811018,-0.00017488290669282204
526.52523006464514,-0.00017447742727464831
526.57500214118011,-0.00017363439525676838
526.62477421771507,-0.00017234316479439348
526.67454629425004,-0.00017059309004273477
526.724318370785,-0.00016837352515700342
526.77409044731996,-0.00016567382429241077
526.82386252385493,-0.00016248334160416788
526.87363460038989,-0.00015879143124748621
526.92340667692474,-0.00015458744737758694
526.97317875345971,-0.00014986074414966231
527.02295082999467,-0.00014460067571893235
527.07272290652963,-0.00013879659624060846
527.1224949830646,-0.00013243785986990174
527.17226705959956,-0.00012551382076202345
527.22203913613453,-0.00011801383307218484
527.27181121266949,-0.0001099272509555971
527.32158328920445,-0.0001012434285674715
527.37135536573942,-9.195172006301914e-05
527.42112744227438,-8.2041479597451348e-05
527.47089951880935,-7.1502061325979323e-05
527.52067159534431,-6.0322819403814301e-05
527.57044367187927,-4.8493107986167478e-05
527.62021574841424,-3.5986787276248774e-05
527.6699878249492,-2.1798097840356985e-05
527.71975990148417,-3.3734104743816377e-06
527.76953197801913,2.1977557769105076e-05
527.81930405455398,5.6945089837438389e-05
527.86907613108895,0.00010421946867820088
527.91884820762391,0.00016649097723875266
527.96862028415887,0.00024644989846652171
528.01839236069384,0.00034678651530893595
528.0681644372288,0.00047019111071342363
528.11793651376377,0.00061935396762741223
528.16770859029873,0.00079696536899833022
528.21748066683369,0.0010057620853647419
528.26725274336866,0.0012512350371970851
528.31702481990362,0.0015431240131069568
528.36679689643859,0.0018915319607060361
528.41656897297355,0.0023065618276060015
528.46634104950851,0.0027983165614185314
528.51611312604348,0.0033768991097553052
528.56588520257844,0.0040524124202280017
528.61565727911341,0.0048356424771100678
528.66542935564837,0.0057749294160580463
528.71520143218333,0.0069749323457644029
528.76497350871819,0.0085449406650549998
528.81474558525315,0.010594185218645155
528.86451766178811,0.013195278929553496
528.91428973832308,0.016321725699488629
528.96406181485804,0.019930425725657605
529.01383389139301,0.023978279205267492
529.06360596792797,0.028422186335525346
529.11337804446293,0.033219047313638193
529.1631501209979,0.038325762336813132
529.21292219753286,0.043699196506548924
529.26269427406783,0.049272793702314799
529.31246635060279,0.054916022152973983
529.36223842713775,0.060487526618369231
529.41201050367272,0.065846199117719509
529.46178258020768,0.070892153786710155
529.51155465674265,0.075612505877023908
529.56132673327761,0.080005408697830765
529.61109880981257,0.08406901555830093
529.66087088634742,0.087801479767596294
529.71064296288239,0.091200954634904075
529.76041503941735,0.094265593469385456
529.81018711595232,0.096995329090713872
529.85995919248728,0.09946119854653733
529.90973126902225,0.10182773557565977
529.95950334555721,0.10426583741384976
530.00927542209217,0.10694640129687578
530.05904749862714,0.10998785378829522
530.1088195751621,0.11328257123160762
530.15859165169707,0.11666206896648149
530.20836372823203,0.11995787300281439
530.25813580476699,0.1230737457092184
530.30790788130196,0.1261568770592279
530.35767995783692,0.12940568024910859
530.40745203437189,0.13301834277921692
530.45722411090685,0.13706551669896855
530.50699618744181,0.14127773895869389
530.55676826397678,0.14532946419898851
530.60654034051163,0.14889588644515328
530.65631241704659,0.15178273461649155
530.70608449358156,0.15407505007568525
530.75585657011652,0.15589388487098749
530.80562864665148,0.15736023455302117
530.85540072318645,0.15851556237491768
530.90517279972141,0.15916353144609907
530.95494487625638,0.15906355220665416
531.00471695279134,0.1579754672258141
531.05448902932631,0.1557958307326642
531.10426110586127,0.15275207143962494
531.15403318239623,0.1491206894464458
531.2038052589312,0.14517817751167356
531.25357733546616,0.14113067229797788
531.30334941200113,0.13694155427601484
531.35312148853609,0.13252188474772236
531.40289356507105,0.12778281586349111
531.45266564160602,0.12271197851398065
531.50243771814087,0.1175124779152506
531.55220979467583,0.11242509291642401
531.6019818712108,0.10769033212359043
531.65175394774576,0.10347868004822998
531.70152602428072,0.099797617340937936
531.75129810081569,0.096631480140156004
531.80107017735065,0.093964604584325873
531.85084225388562,0.091781326811889274
531.90061433042058,0.090065982961287858
531.95038640695554,0.088802909170963382
532.00015848349051,0.087976442396020801
532.04993056002547,0.087571604327930416
532.09970263656044,0.087575344875369485
532.1494747130954,0.087974950894975631
532.19924678963037,0.088757709243386565
532.24901886616533,0.089910906777240091
532.29879094270029,0.091421830353173916
532.34856301923526,0.093277766827825681
532.39833509577011,0.095466003057827792
532.44810717230507,0.097964277865469102
532.49787924884004,0.10066091631810005
532.547651325375,0.10339538569140158
532.59742340190996,0.10600671442817539
532.64719547844493,0.10841326860800807
532.69696755497989,0.11077029702540431
532.74673963151486,0.11327706551651513
532.79651170804982,0.11613261632800788
532.84628378458478,0.11943910674329565
532.89605586111975,0.12305085946799955
532.94582793765471,0.12678313270764213
532.99560001418968,0.13045118469350117
533.04537209072464,0.13390563037706982
533.0951441672596,0.1371347117572258
533.14491624379457,0.1401601530246612
533.19468832032953,0.14300367809398398
533.2444603968645,0.14568533529492328
533.29423247339946,0.14821953739796925
533.34400454993431,0.15061951364836892
533.39377662646928,0.15289849329138561
533.44354870300424,0.15506970557226599
533.4933207795392,0.15714637973626247
533.54309285607417,0.1591417450286273
533.59286493260913,0.1610690306946129
533.6426370091441,0.16294424231717328
533.69240908567906,0.16479609579304827
533.74218116221402,0.16665694218334867
533.79195323874899,0.1685591328385006
533.84172531528395,0.17053045459941285
533.89149739181892,0.17256528174080635
533.94126946835388,0.17464313800909145
533.99104154488884,0.17674347974019788
534.04081362142381,0.17884576327005572
534.09058569795877,0.18092944493459492
534.14035777449374,0.18297398106974541
534.1901298510287,0.18495882801143709
534.23990192756355,0.18686344209559569
534.28967400409852,0.18866727965815991
534.33944608063348,0.19034979703505517
534.38921815716844,0.19189045056221149
534.43899023370341,0.19327127871917707
534.48876231023837,0.19449905899527548
534.53853438677334,0.19559433511639987
534.5883064633083,0.19657779913245704
534.63807853984326,0.19747014309335378
534.68785061637823,0.19829205904899685
534.73762269291319,0.19906423904929302
534.78739476944816,0.19980737514414904
534.83716684598312,0.20054215938347159
534.88693892251808,0.2012892838171676
534.93671099905305,0.20206944049514372
534.98648307558801,0.20290332146730675
535.03625515212298,0.20380837051563827
535.08602722865794,0.2047729526125904
535.1357993051929,0.20577011120252925
535.18557138172775,0.20677275231069014
535.23534345826272,0.20775378196231495
535.28511553479768,0.20868610618263922
535.33488761133265,0.20954263099690024
535.38465968786761,0.21029626243033547
535.43443176440258,0.21092202249268283
535.48420384093754,0.21142692178202777
535.5339759174725,0.21184276419629886
535.58374799400747,0.21220200120780702
535.63352007054243,0.21253525897193196
535.6832921470774,0.21284785345776044
535.73306422361236,0.21312659248610646
535.78283630014732,0.2133578608844971
535.83260837668229,0.21352804348045962
535.88238045321725,0.21362352510152141
535.93215252975222,0.21363069057520953
535.98192460628718,0.21353592472905136
536.03169668282214,0.21332561239057407
536.08146875935699,0.21298613838730585
536.13124083589196,0.21250388754677244
536.18101291242692,0.21186524469650164
536.23078498896189,0.21105623190824002
536.28055706549685,0.21005742448064152
536.33032914203181,0.2088451951027045
536.38010121856678,0.20739580779751177
536.42987329510174,0.20568552658814626
536.47964537163671,0.20369061549769088
536.52941744817167,0.2013873385492285
536.57918952470663,0.19875195976584206
536.6289616012416,0.19576216919516354
536.67873367777656,0.19244305380489321
536.72850575431153,0.18887698581255893
536.77827783084649,0.18514976341220396
536.82804990738146,0.18134718479787162
536.87782198391642,0.17755504816360521
536.92759406045138,0.1738591517034479
536.97736613698635,0.17034529361144315
537.0271382135212,0.1670944722142301
537.07691029005616,0.16410491927047652
537.12668236659113,0.16130504464601764
537.17645444312609,0.15862107077252857
537.22622651966105,0.1559801755229055
537.27599859619602,0.15335329978234241
537.32577067273098,0.15077239134023443
537.37554274926595,0.14827392195626005
537.42531482580091,0.14589306760755147
537.47508690233587,0.14365134977197758
537.52485897887084,0.14156210651054094
537.5746310554058,0.13963856504605041
537.62440313194077,0.13789153671709564
537.67417520847573,0.13627566088432105
537.72394728501069,0.1346890658262809
537.77371936154566,0.13302739611571127
537.82349143808062,0.13118703102703685
537.87326351461559,0.12912175743052443
537.92303559115044,0.12688299200825925
537.9728076676854,0.12453164868170132
538.02257974422037,0.12212864137232567
538.07235182075533,0.11973488400160255
538.12212389729029,0.11741129049100221
538.17189597382526,0.11521877476199485
538.22166805036022,0.11321719631362416
538.27144012689519,0.1114277477932106
538.32121220343015,0.10982269672264976
538.37098427996511,0.10837116886979743
538.42075635650008,0.10704235305047975
538.47052843303504,0.10581814017640628
538.52030050957001,0.10470844183287077
538.57007258610497,0.10372691197671964
538.61984466263993,0.10288720456479936
538.6696167391749,0.10220297355395638
538.71938881570986,0.10168787290103705
538.76916089224483,0.10135555656288792
538.81893296877979,0.10121951511575665
538.86870504531464,0.10128080231792748
538.91847712184961,0.10151950511823238
538.96824919838457,0.10191369381384349
539.01802127491953,0.10244143870193298
539.0677933514545,0.1030808100796729
539.11756542798946,0.10380987824423536
539.16733750452443,0.10460671349279246
539.21710958105939,0.10544938612251634
539.26688165759435,0.10631596643057903
539.31665373412932,0.10718452471415268
539.36642581066428,0.10803313127040944
539.41619788719925,0.10884166979017956
539.46596996373421,0.10963284899596863
539.51574204026917,0.11047283253303941
539.56551411680414,0.11142972342694922
539.6152861933391,0.11257100469358587
539.66505826987407,0.11390457101213117
539.71483034640903,0.11533007887817573
539.76460242294388,0.11673573431973124
539.81437449947884,0.11801132034486758
539.86414657601381,0.11911888369185535
539.91391865254877,0.12012122723442759
539.96369072908374,0.12108862739223805
540.0134628056187,0.12209082481799419
540.06323488215367,0.12316820317397431
540.11300695868863,0.12431717789219704
540.16277903522359,0.12553055608919722
540.21255111175856,0.12680114488150981
540.26232318829352,0.12812175138566984
540.31209526482849,0.12948518271821211
540.36186734136345,0.13088424599567167
540.41163941789841,0.13231174833458337
540.46141149443338,0.13376049685148222
540.51118357096834,0.13522329866290317
540.56095564750331,0.13669296088538113
540.61072772403827,0.13816229063545105
540.66049980057323,0.13962409502964782
540.71027187710808,0.14107118118450318
540.76004395364305,0.14249635621655868
540.80981603017801,0.14389242724234591
540.85958810671298,0.14525220137839978
540.90936018324794,0.14656848574125528
540.9591322597829,0.14783408744744736
541.00890433631787,0.14904181366203678
541.05867641285283,0.15018664432687229
541.1084484893878,0.15127152754698717
541.15822056592276,0.15230123753730576
541.20799264245773,0.15328054851275233
541.25776471899269,0.15421423468825121
541.30753679552765,0.15510707027872675
541.35730887206262,0.1559638294991032
541.40708094859758,0.15678928656430483
541.45685302513255,0.15758821568925607
541.50662510166751,0.1583653910888812
541.55639717820247,0.15912558697810447
541.60616925473732,0.15987357757184864
541.65594133127229,0.16061413708504119
541.70571340780725,0.16135203973260487
541.75548548434222,0.16209205972946397
541.80525756087718,0.16283897129054284
541.85502963741214,0.16359754863076567
541.90480171394711,0.16437256596505684
541.95457379048207,0.16516879750834074
542.00434586701704,0.1659910174755416
542.054117943552,0.1668440000815837
542.10389002008696,0.16773251954139143
542.15366209662193,0.16866135006988905
542.20343417315689,0.16963526587261749
542.25320624969186,0.17065895560212629
542.30297832622682,0.17173681348256187
542.35275040276179,0.17287317044840864
542.40252247929675,0.17407235743415123
542.45229455583171,0.1753387053742741
542.50206663236668,0.1766765452032619
542.55183870890153,0.1780902078555959
542.60161078543649,0.17958402426576706
542.65138286197146,0.18115669630617429
542.70115493850642,0.18277307396802309
542.75092701504138,0.18438541259737193
542.80069909157635,0.18594596195283178
542.85047116811131,0.18741696371342828
542.90024324464628,0.18878780884103769
542.95001532118124,0.19005245557937991
542.9997873977162,0.19120486217217508
543.04955947425117,0.19223898686314334
543.09933155078613,0.19314878789600456
543.1491036273211,0.19392822351447903
543.19887570385606,0.1945712519622867
543.24864778039102,0.19507183148314766
543.29841985692599,0.19542392032078201
543.34819193346095,0.19562147671890975
543.39796400999592,0.19565845892125108
543.44773608653077,0.19553220679302522
543.49750816306573,0.19525391075232726
543.5472802396007,0.19483830680377609
543.59705231613566,0.19430013095369211
543.64682439267062,0.1936541192083959
543.69659646920559,0.19291500757420788
543.74636854574055,0.19209753205744862
543.79614062227552,0.19121642866443861
543.84591269881048,0.19028643340149845
543.89568477534544,0.18932228227494857
543.94545685188041,0.18833871129110952
543.99522892841537,0.18735045645630188
544.04500100495034,0.18637029298901636
544.0947730814853,0.18539795436451817
544.14454515802026,0.18442785140865917
544.19431723455523,0.18345437920782895
544.24408931109019,0.18247193284841709
544.29386138762516,0.18147490741681321
544.34363346416012,0.18045769799940692
544.39340554069497,0.17941469968259027
544.44317761722994,0.17834030755274793
544.4929496937649,0.17722891669627205
544.54272177029986,0.17607492219955218
544.59249384683483,0.17487271914897778
544.64226592336979,0.17361718926898931
544.69203799990476,0.17230914144296647
544.74181007643972,0.17095334076128674
