energy,intensity
520.00508803856565,-0.00028245754858820769
520.05486011510061,-0.00026427374804036423
520.10463219163557,-0.00024647384210771351
520.15440426817054,-0.00022905533282069302
520.2041763447055,-0.00021201572220974022
520.25394842124047,-0.00019535251230529127
520.30372049777543,-0.00017906320513778667
520.35349257431039,-0.00016314530273766237
520.40326465084536,-0.00014759630713535605
520.45303672738032,-0.00013241372036130474
520.50280880391517,-0.0001175950444459819
520.55258088045014,-0.00010313778141975388
520.6023529569851,-8.9039433313095866e-05
520.65212503352006,-7.5297502156443266e-05
520.70189711005503,-6.1909489980234412e-05
520.75166918658999,-4.8872898814906768e-05
520.80144126312496,-3.618523069089894e-05
520.85121333965992,-2.3843987638646439e-05
520.90098541619489,-1.1846671688588899e-05
520.95075749272985,-1.907848711628368e-07
521.00052956926481,1.1126170783193822e-05
521.05030164579978,2.2106693244042658e-05
521.10007372233474,3.2753280480948013e-05
521.14984579886971,4.3068430463470535e-05
521.19961787540467,5.3054641161173006e-05
521.24938995193963,6.2714410543619563e-05
521.2991620284746,7.2050236580371223e-05
521.34893410500956,8.1064617240987754e-05
521.39870618154441,8.9760050495015864e-05
521.44847825807938,9.8139034312056468e-05
521.49825033461434,0.00010620406666165118
521.5480224111493,0.00011395764551336426
521.59779448768427,0.00012140226883675456
521.64756656421923,0.00012854043460138744
521.6973386407542,0.00013537464077682543
521.74711071728916,0.00014190738533262901
521.79688279382412,0.00014814116623836212
521.84665487035909,0.00015407848146358578
521.89642694689405,0.00015972182897786317
521.94619902342902,0.00016507370675075705
521.99597109996398,0.00017013661275182973
522.04574317649895,0.00017491304495064288
522.09551525303391,0.00017940550131675882
522.14528732956887,0.00018361647981974096
522.19505940610384,0.00018754847842915204
522.2448314826388,0.00019120399511455264
522.29460355917377,0.00019458552784550618
522.34437563570862,0.00019769557459156824
522.39414771224358,0.00020053663332231567
522.44391978877854,0.00020311120200730277
522.49369186531351,0.00020542177861609251
522.54346394184847,0.00020747086111824698
522.59323601838344,0.00020926094748332917
522.6430080949184,0.00021079453568090029
522.69278017145336,0.00021207412368052375
522.74255224798833,0.00021310220945176036
522.79232432452329,0.00021388129096417568
522.84209640105826,0.00021441386618732943
522.89186847759322,0.00021470243309078523
522.94164055412818,0.00021474948964410432
522.99141263066315,0.00021455753381685052
523.04118470719811,0.00021412906357858551
523.09095678373308,0.00021346657689886987
523.14072886026804,0.00021257257174727004
523.19050093680301,0.0002114495460933453
523.24027301333786,0.00021009999790666165
523.29004508987282,0.00020852642515677752
523.33981716640778,0.00020673132581325488
523.38958924294275,0.00020471719784565933
523.43936131947771,0.00020248653922354991
523.48913339601268,0.00020004184791649253
523.53890547254764,0.00019738562189404723
523.5886775490826,0.00019452035912577784
523.63844962561757,0.00019144855758124375
523.68822170215253,0.00018817271523001206
523.7379937786875,0.0001846953300416415
523.78776585522246,0.00018101889998569482
523.83753793175742,0.00017714592303173674
523.88731000829239,0.00017307889714932771
523.93708208482735,0.0001688203203080291
523.98685416136232,0.00016437269047740602
524.03662623789728,0.00015973850562702038
524.08639831443224,0.00015492026372643274
524.13617039096721,0.00014992046274520706
524.18594246750206,0.00014474160065291753
524.23571454403702,0.00013938617541910174
524.28548662057199,0.00013385668501333448
524.33525869710695,0.00012815562740517964
524.38503077364192,0.00012228550056419732
524.43480285017688,0.00011624880245995073
524.48457492671184,0.0001100480310620023
524.53434700324681,0.00010368568433991498
524.58411907978177,9.7164260263250221e-05
524.63389115631674,9.0486256801571192e-05
524.6836632328517,8.3654171924439917e-05
524.73343530938666,7.667050360141847e-05
524.78320738592163,6.9537749802069874e-05
524.83297946245659,6.2258408495955743e-05
524.88275153899156,5.4834977652640969e-05
524.93252361552652,4.7269955241683752e-05
524.98229569206148,3.9565839232649633e-05
525.03206776859645,3.1725127595099876e-05
525.0818398451313,2.3750318298615446e-05
525.13161192166626,1.5643909312722476e-05
525.18138399820123,7.4083986070013364e-06
525.23115607473619,-9.5371584898608841e-07
525.28092815127116,-9.4399360856765044e-06
525.33070022780612,-1.8047764133508786e-05
525.38047230434108,-2.6774702022918664e-05
525.43024438087605,-3.5618251784345499e-05
525.48001645741101,-4.4575915448226487e-05
525.52978853394598,-5.3645195044998116e-05
525.57956061048094,-6.2823592605100453e-05
525.6293326870159,-7.2108610158968687e-05
525.67910476355087,-8.1497749737040283e-05
525.72887684008583,-9.0988513369754222e-05
525.7786489166208,-0.00010057840308754808
525.82842099315576,-0.00011026492092085899
525.87819306969072,-0.00012004556890012411
525.92796514622569,-0.00012991784905578251
525.97773722276065,-0.00013987926341827047
526.0275092992955,-0.00014992731401800236
526.07728137583047,-0.00016005950288546281
526.12705345236543,-0.00017027333205106587
526.17682552890039,-0.00018056630354524943
526.22659760543536,-0.00019093591939845053
526.27636968197032,-0.00020137968164110869
526.32614175850529,-0.00021189509230365791
526.37591383504025,-0.0002224796534165389
526.42568591157521,-0.00023313086701018848
526.47545798811018,-0.00024384623511504368
526.52523006464514,-0.00025462325976154283
526.57500214118011,-0.00026545944298012319
526.62477421771507,-0.0002763522868012222
526.67454629425004,-0.00028729929325527778
526.724318370785,-0.00029829796437272696
526.77409044731996,-0.00030934580218400806
526.82386252385493,-0.00032044030871955878
526.87363460038989,-0.00033157898600981624
526.92340667692474,-0.00034275933608519233
526.97317875345971,-0.0003539788609761759
527.02295082999467,-0.00036523506271317894
527.07272290652963,-0.00037652544332664
527.1224949830646,-0.00038784750484699513
527.17226705959956,-0.00039919874930468289
527.22203913613453,-0.00041057667873014116
527.27181121266949,-0.0004219787951538071
527.32158328920445,-0.00043340260060611817
527.37135536573942,-0.00044484559711751204
527.42112744227438,-0.00045630528671842608
527.47089951880935,-0.00046777917143929883
527.52067159534431,-0.00047926475331056722
527.57044367187927,-0.0004907595343626686
527.62021574841424,-0.00050225631916823348
527.6699878249492,-0.00051345091112732066
527.71975990148417,-0.00052356983033912871
527.76953197801913,-0.00053179816620825657
527.81930405455398,-0.00053732100813929328
527.86907613108895,-0.00053932344553686302
527.91884820762391,-0.00053699056780554943
527.96862028415887,-0.0005295074643499499
528.01839236069384,-0.00051605922457466239
528.0681644372288,-0.00049583093788428635
528.11793651376377,-0.00046800769368341832
528.16770859029873,-0.00043177458137665754
528.21748066683369,-0.00038638261144199101
528.26725274336866,-0.0003349882778498044
528.31702481990362,-0.00028677312215217958
528.36679689643859,-0.0002514336584026975
528.41656897297355,-0.00023866640065495041
528.46634104950851,-0.00025816786296252101
528.51611312604348,-0.00031963455937899371
528.56588520257844,-0.0004327630039579547
528.61565727911341,-0.00060724971075299186
528.66542935564837,-0.00085279119381768617
528.71520143218333,-0.0011790839672056325
528.76497350871819,-0.0015958245449693501
528.81474558525315,-0.0021128890185072857
528.86451766178811,-0.0027456292635820306
528.91428973832308,-0.0035157446755640642
528.96406181485804,-0.0044452897678368547
529.01383389139301,-0.0055556887623992163
529.06360596792797,-0.0067718743425235206
529.11337804446293,-0.0078193741783668946
529.1631501209979,-0.0083990362834495957
529.21292219753286,-0.0082170052994467446
529.26269427406783,-0.0073280916895689385
529.31246635060279,-0.0063460765216718507
529.36223842713775,-0.0059350583265759815
529.41201050367272,-0.0067413394634407431
529.46178258020768,-0.008832399854882933
529.51155465674265,-0.011619776041692897
529.56132673327761,-0.014484609714629948
529.61109880981257,-0.016812279778558314
529.66087088634742,-0.018294004277656206
529.71064296288239,-0.019127378798552419
529.76041503941735,-0.019557568706935424
529.81018711595232,-0.019823690494741142
529.85995919248728,-0.020012507605588037
529.90973126902225,-0.020174859788251398
529.95950334555721,-0.020395084404115638
530.00927542209217,-0.020757518814565001
530.05904749862714,-0.021346500380983902
530.1088195751621,-0.022246366464756584
530.15859165169707,-0.023541454427267294
530.20836372823203,-0.025316089008084963
530.25813580476699,-0.027575486975429553
530.30790788130196,-0.030058281006929533
530.35767995783692,-0.032447007856937105
530.40745203437189,-0.034424398010844959
530.45722411090685,-0.035782654809279446
530.50699618744181,-0.03660592685773445
530.55676826397678,-0.03702650224393822
530.60654034051163,-0.03717666905561845
530.65631241704659,-0.037188715380503834
530.70608449358156,-0.037194929306321511
530.75585657011652,-0.037327598920799621
530.80562864665148,-0.037718920895800645
530.85540072318645,-0.038372404845080088
530.90517279972141,-0.03890678838565198
530.95494487625638,-0.038869206200760731
531.00471695279134,-0.037807874138479747
531.05448902932631,-0.035613053569964137
531.10426110586127,-0.033002836761312104
531.15403318239623,-0.030818090059232639
531.2038052589312,-0.02989585532389849
531.25357733546616,-0.030572915310879911
531.30334941200113,-0.032193624846503011
531.35312148853609,-0.033985350276331761
531.40289356507105,-0.035175764568359302
531.45266564160602,-0.035250663932691273
531.50243771814087,-0.034423091540686124
531.55220979467583,-0.033033242766825677
531.6019818712108,-0.031420957217645318
531.65175394774576,-0.029833889605827557
531.70152602428072,-0.028305104313405882
531.75129810081569,-0.02683719657592365
531.80107017735065,-0.025432761628924161
531.85084225388562,-0.024094394707950773
531.90061433042058,-0.022824691048546786
531.95038640695554,-0.021626245886255668
532.00015848349051,-0.020501654456620666
532.04993056002547,-0.019453231739802013
532.09970263656044,-0.018481249602627592
532.1494747130954,-0.017585075082498181
532.19924678963037,-0.016764071177204354
532.24901886616533,-0.016017600884536409
532.29879094270029,-0.0153450272022852
532.34856301923526,-0.0147457131282413
532.39833509577011,-0.014219021660196507
532.44810717230507,-0.013764315795939008
532.49787924884004,-0.013380958533260656
532.547651325375,-0.013068312869952026
532.59742340190996,-0.012825741405058655
532.64719547844493,-0.012652052941882042
532.69696755497989,-0.012544402785526432
532.74673963151486,-0.012499638991582518
532.79651170804982,-0.012514609615640937
532.84628378458478,-0.012586162713292159
532.89605586111975,-0.012711146340126656
532.94582793765471,-0.01288640855173534
532.99560001418968,-0.013108797399751959
533.04537209072464,-0.013369729213376536
533.0951441672596,-0.013639477186466853
533.14491624379457,-0.01388317076732648
533.19468832032953,-0.014065940493699802
533.2444603968645,-0.014159528832890289
533.29423247339946,-0.014157916409863192
533.34400454993431,-0.014059754090765875
533.39377662646928,-0.013863692741745037
533.44354870300424,-0.013568383228948044
533.4933207795392,-0.013172476418521373
533.54309285607417,-0.012674623176611943
533.59286493260913,-0.012073474369367343
533.6426370091441,-0.01137921838197864
533.69240908567906,-0.01065486335830057
533.74218116221402,-0.0099785239539542658
533.79195323874899,-0.00942831602685823
533.84172531528395,-0.0090601521544094732
533.89149739181892,-0.0088598631690457452
533.94126946835388,-0.0088039526012243519
533.99104154488884,-0.008869011384972536
534.04081362142381,-0.0090316304543174297
534.09058569795877,-0.0092684007432853877
534.14035777449374,-0.0095559131859037638
534.1901298510287,-0.0098707587161984689
534.23990192756355,-0.010189528268196968
534.28967400409852,-0.010488812775926948
534.33944608063348,-0.010745203173414319
534.38921815716844,-0.010935290394686659
534.43899023370341,-0.011037775876217348
534.48876231023837,-0.01105158136302542
534.53853438677334,-0.010986880366206098
534.5883064633083,-0.010853967628761452
534.63807853984326,-0.010663137893692221
534.68785061637823,-0.01042468590399992
534.73762269291319,-0.010148906402686286
534.78739476944816,-0.0098460941327531692
534.83716684598312,-0.0095265438372013067
534.88693892251808,-0.0092005502590329913
534.93671099905305,-0.0088784081412486282
534.98648307558801,-0.0085704122268509542
535.03625515212298,-0.0082891662498252305
535.08602722865794,-0.00804361642995155
535.1357993051929,-0.0078267622604003551
535.18557138172775,-0.0076307642370057049
535.23534345826272,-0.0074477828555999936
535.28511553479768,-0.0072699786120170584
535.33488761133265,-0.0070895120020909586
535.38465968786761,-0.0068985435216549762
535.43443176440258,-0.0066892336665422825
535.48420384093754,-0.0064537429325871587
535.5339759174725,-0.0061842318156223319
535.58374799400747,-0.0058728608114818615
535.63352007054243,-0.0055126065860445772
535.6832921470774,-0.0051077629718410122
535.73306422361236,-0.0046708995128477149
535.78283630014732,-0.0042147748897579662
535.83260837668229,-0.0037521477832639372
535.88238045321725,-0.0032957768740583537
535.93215252975222,-0.002858420842834053
535.98192460628718,-0.0024528383702835388
536.03169668282214,-0.0020917881370993152
536.08146875935699,-0.0017880288239752185
536.13124083589196,-0.0015543191116023092
536.18101291242692,-0.0014034176806740906
536.23078498896189,-0.0013380605878043905
536.28055706549685,-0.0012104943259826362
536.33032914203181,-0.00075685096917932349
536.38010121856678,0.00028973975257529094
536.42987329510174,0.0021670011786043553
536.47964537163671,0.0046971296126094852
536.52941744817167,0.0073926655254469287
536.57918952470663,0.0097587524309679097
536.6289616012416,0.011315928932344677
536.67873367777656,0.012022763170681183
536.72850575431153,0.012348915321647724
536.77827783084649,0.012793901125566887
536.82804990738146,0.013828542283407241
536.87782198391642,0.015415149258265148
536.92759406045138,0.017079676607074545
536.97736613698635,0.018333921934891029
537.0271382135212,0.018718629383644991
537.07691029005616,0.018273683030970433
537.12668236659113,0.017460041501549672
537.17645444312609,0.016751855168489316
537.22622651966105,0.016617345799833871
537.27599859619602,0.017253181445282983
537.32577067273098,0.018477476421353778
537.37554274926595,0.020080273371990032
537.42531482580091,0.021851614941134634
537.47508690233587,0.023581543772730806
537.52485897887084,0.025060102510721549
537.5746310554058,0.026077333799050084
537.62440313194077,0.026434279634918401
537.67417520847573,0.026187729134424798
537.72394728501069,0.025651762450212945
537.77371936154566,0.025151767875220998
537.82349143808062,0.025019154748484151
537.87326351461559,0.025419395908767406
537.92303559115044,0.026102162825746511
537.9728076676854,0.026769149360138411
538.02257974422037,0.027141339548383936
538.07235182075533,0.027213454070301735
538.12212389729029,0.027183566168994588
538.17189597382526,0.027254571455809284
538.22166805036022,0.027625131347223553
538.27144012689519,0.028338634590010792
538.32121220343015,0.02924200359086665
538.37098427996511,0.030169544561591433
538.42075635650008,0.030954719165101563
538.47052843303504,0.031473636074982381
538.52030050957001,0.031742484371167057
538.57007258610497,0.031800549057462435
538.61984466263993,0.031687115137676192
538.6696167391749,0.031441467615614838
538.71938881570986,0.03110289149508616
538.76916089224483,0.030710671779896503
538.81893296877979,0.030303925559250156
538.86870504531464,0.029908987967979084
538.91847712184961,0.029530645477698181
538.96824919838457,0.029171611943895892
539.01802127491953,0.028834601222060663
539.0677933514545,0.02852232716768055
539.11756542798946,0.028237503636243333
539.16733750452443,0.027982844483237013
539.21710958105939,0.027761063564149813
539.26688165759435,0.027574874734469901
539.31665373412932,0.027426991849684834
539.36642581066428,0.027320128765283169
539.41619788719925,0.027256045688475172
539.46596996373421,0.02722263327819141
539.51574204026917,0.027206729347016512
539.56551411680414,0.02719743492304566
539.6152861933391,0.027183851034374484
539.66505826987407,0.02715507870909839
539.71483034640903,0.02710021897531234
539.76460242294388,0.027008372861112184
539.81437449947884,0.02686864139459294
539.86414657601381,0.026670125603850181
539.91391865254877,0.026401926516978924
539.96369072908374,0.026053145162074853
540.0134628056187,0.025613080440281433
540.06323488215367,0.02508187357368119
540.11300695868863,0.024475904426556727
540.16277903522359,0.023812885510506088
540.21255111175856,0.023110529337127872
540.26232318829352,0.022386548418020569
540.31209526482849,0.021658655264783278
540.36186734136345,0.020944562389014099
540.41163941789841,0.020261982302311687
540.46141149443338,0.019628627516274921
540.51118357096834,0.019062210542502012
540.56095564750331,0.018580443892591947
540.61072772403827,0.018201757063860069
540.66049980057323,0.017948259424983348
540.71027187710808,0.017803925794378617
540.76004395364305,0.017738911932336121
540.80981603017801,0.017723373481747018
540.85958810671298,0.017727466085503019
540.90936018324794,0.017721345386495724
540.9591322597829,0.01767516702761629
541.00890433631787,0.017559086810499558
541.05867641285283,0.017350368372920255
541.1084484893878,0.017052341720155351
541.15822056592276,0.016674310637186607
541.20799264245773,0.016225578908995786
541.25776471899269,0.015715450320564872
541.30753679552765,0.015153228656875406
541.35730887206262,0.014548217702909261
541.40708094859758,0.013909721243648199
541.45685302513255,0.013247043064074315
541.50662510166751,0.012569486949168818
541.55639717820247,0.011886356683913801
541.60616925473732,0.011206956053293138
541.65594133127229,0.010540588842284482
541.70571340780725,0.009896558835871927
541.75548548434222,0.0092841698190370137
541.80525756087718,0.0087127255767613931
541.85502963741214,0.0081915298940271608
541.90480171394711,0.007729886555815968
541.95457379048207,0.0073370993471097989
542.00434586701704,0.007022472052889972
542.054117943552,0.0067953084581386936
542.10389002008696,0.0066649123478372818
542.15366209662193,0.0066405875069684983
542.20343417315689,0.0067316359051124985
542.25320624969186,0.0069308076079203085
542.30297832622682,0.0071738897324531425
542.35275040276179,0.0073844247695601384
542.40252247929675,0.0074859552100907667
542.45229455583171,0.0074020235448944982
542.50206663236668,0.0070561722648201375
542.55183870890153,0.0063719438607189316
542.60161078543649,0.0052728808234373536
542.65138286197146,0.0037188670892095432
542.70115493850642,0.0018883356657867223
542.75092701504138,4.103108351971585e-05
542.80069909157635,-0.0015632525557234267
542.85047116811131,-0.0027327844036856286
542.90024324464628,-0.0034876516458186568
542.95001532118124,-0.0038919006361958219
542.9997873977162,-0.0040095825882677794
543.04955947425117,-0.0039047487154861837
543.09933155078613,-0.0036414502313001362
543.1491036273211,-0.0032837383491618466
543.19887570385606,-0.0028956642825215262
543.24864778039102,-0.0025412792448300525
543.29841985692599,-0.0022846344495384141
543.34819193346095,-0.0021897811100972664
543.39796400999592,-0.0023207704399575979
543.44773608653077,-0.0027168867283875464
543.49750816306573,-0.0033159731089644762
543.5472802396007,-0.0040299049147202171
543.59705231613566,-0.0047705574662227912
543.64682439267062,-0.0054498060840403317
543.69659646920559,-0.0059795260887410828
543.74636854574055,-0.0062715928008928445
543.79614062227552,-0.0062379225625066592
543.84591269881048,-0.0058382685147697622
543.89568477534544,-0.0051725242199655019
543.94545685188041,-0.0043661122881973879
543.99522892841537,-0.0035444553295682635
