energy,intensity
629.99553449661744,-0.0041615040262637749
630.02352128367068,-0.0040562007345388536
630.05150807072391,-0.0039521366646754598
630.07949485777726,-0.0038493051240795668
630.1074816448305,-0.0037476994201584017
630.13546843188374,-0.003647312860317933
630.16345521893697,-0.0035481387519645511
630.19144200599033,-0.0034501704025042489
630.21942879304356,-0.0033534011193442144
630.2474155800968,-0.0032578242098904348
630.27540236715004,-0.0031634329815493013
630.30338915420339,-0.0030702207417268286
630.33137594125662,-0.0029781807978301613
630.35936272830986,-0.0028873064572653103
630.3873495153631,-0.0027975910274386632
630.41533630241645,-0.0027090278157562543
630.44332308946969,-0.0026216101296251929
630.47130987652292,-0.0025353312764515063
630.49929666357616,-0.0024501845636415837
630.52728345062951,-0.0023661632986014766
630.55527023768275,-0.0022832607887382579
630.58325702473599,-0.0022014703414579735
630.61124381178922,-0.0021207852641670129
630.63923059884257,-0.0020411988642714449
630.66721738589581,-0.0019627044491783061
630.69520417294905,-0.0018852953262936611
630.72319096000228,-0.001808964803023899
630.75117774705552,-0.0017337061867754111
630.77916453410887,-0.001659512784954286
630.80715132116211,-0.0015863779049675182
630.83513810821535,-0.0015142948542211936
630.86312489526858,-0.0014432569401217007
630.89111168232193,-0.0013732574700751482
630.91909846937517,-0.0013042897514884951
630.94708525642841,-0.001236347091767844
630.97507204348165,-0.0011694227983195845
631.003058830535,-0.0011035101785498412
631.03104561758823,-0.0010386025398655403
631.05903240464147,-0.00097469318967280014
631.08701919169471,-0.00091177543537801205
631.11500597874806,-0.00084984258438731486
631.1429927658013,-0.00078888794410760313
631.17097955285453,-0.00072890482194501189
631.19896633990777,-0.00066988652530593207
631.22695312696112,-0.00061182636159651802
631.25493991401436,-0.00055471763822363272
631.28292670106759,-0.0004985536625934276
631.31091348812083,-0.00044332774211229374
631.33890027517418,-0.00038903318418640018
631.36688706222742,-0.00033566329622257901
631.39487384928066,-0.00028321138562699785
631.42286063633389,-0.00023167075980604611
631.45084742338713,-0.00018103472616611433
631.47883421044048,-0.00013129659211339167
631.50682099749372,-8.2449665054672367e-05
631.53480778454696,-3.4487252396140457e-05
631.56279457160019,1.2597338455811415e-05
631.59078135865354,5.8810800094981324e-05
631.61876814570678,0.00010415982511460262
631.64675493276002,0.00014865110610847517
631.67474171981326,0.00019229133567021033
631.70272850686661,0.00023508720639358902
631.73071529391984,0.00027704541087187424
631.75870208097308,0.00031817264169885213
631.78668886802632,0.00035847559146813188
631.81467565507967,0.00039796095277348288
631.84266244213291,0.00043663541820819528
631.87064922918614,0.00047450568036604026
631.89863601623938,0.00051157843184062776
631.92662280329273,0.00054786036522571453
631.95460959034597,0.00058335817311461527
631.9825963773992,0.00061807854810108957
632.01058316445244,0.00065202818277874768
632.03856995150579,0.00068521376974133279
632.06655673855903,0.00071764200158218523
632.09454352561227,0.0007493195708950524
632.1225303126655,0.00078025317027354327
632.15051709971885,0.00081044949231138944
632.17850388677209,0.00083991522960195615
632.20649067382533,0.00086865707473897835
632.23447746087857,0.00089668172031606426
632.2624642479318,0.00092399585892682511
632.29045103498515,0.00095060618316497884
632.31843782203839,0.00097651938562391704
632.34642460909163,0.0010017421588973615
632.37441139614486,0.0010262811955789215
632.40239818319822,0.0010501431882623026
632.43038497025145,0.0010733348295409214
632.45837175730469,0.0010958628120084865
632.48635854435793,0.0011177338282586074
632.51434533141128,0.0011389545708849794
632.54233211846451,0.0011595317324810403
632.57031890551775,0.0011794720056404887
632.59830569257099,0.0011987820829569332
632.62629247962434,0.0012174686570240597
632.65427926667758,0.0012355384204353263
632.68226605373081,0.00125299806578442
632.71025284078405,0.0012698542856649502
632.7382396278374,0.0012861137726705944
632.76622641489064,0.0013017832193948278
632.79421320194388,0.0013168693184313295
632.82219998899711,0.0013313787623737091
632.85018677605046,0.0013453182438156323
632.8781735631037,0.0013586944553505963
632.90616035015694,0.0013715140895722688
632.93414713721018,0.0013837838390742604
632.96213392426341,0.00139551039645018
632.99012071131676,0.0014067004542936835
633.01810749837,0.001417360705198289
633.04609428542324,0.0014274978417576545
633.07408107247647,0.0014371185565653884
633.10206785952983,0.0014462295422151385
633.13005464658306,0.0014548374913004396
633.1580414336363,0.0014629490964149418
633.18602822068954,0.001470571050152253
633.21401500774289,0.0014777100451060128
633.24200179479612,0.0014843727738697726
633.26998858184936,0.001490565929037173
633.2979753689026,0.0014962962032018245
633.32596215595595,0.0015015702889573572
633.35394894300919,0.0015063948788973382
633.38193573006242,0.0015107766656154002
633.40992251711566,0.0015147223417051531
633.43790930416901,0.0015182385997602212
633.46589609122225,0.0015213321323741856
633.49388287827549,0.0015240096321406723
633.52186966532872,0.0015262777916532902
633.54985645238207,0.0015281433035056575
633.57784323943531,0.0015296128602913679
633.60583002648855,0.0015306931546040406
633.63381681354178,0.001531390879037286
633.66180360059502,0.0015317127261847143
633.68979038764837,0.0015316653886399336
633.71777717470161,0.0015312555589965555
633.74576396175485,0.0015304899298481914
633.77375074880808,0.00152937519378845
633.80173753586143,0.0015279180434109351
633.82972432291467,0.0015261251713092688
633.85771110996791,0.0015240032700770568
633.88569789702115,0.0015215590323079079
633.9136846840745,0.0015187991505954217
633.94167147112773,0.0015157303175332296
633.96965825818097,0.0015123592257149327
633.99764504523421,0.0015086925677341395
634.02563183228756,0.0015047370361844445
634.0536186193408,0.00150049932365949
634.08160540639403,0.0014959861227528703
634.10959219344727,0.0014912041260581954
634.13757898050062,0.0014861600261690544
634.16556576755386,0.0014808605156790991
634.19355255460709,0.0014753122871819198
634.22153934166033,0.0014695220332711255
634.24952612871368,0.001463496446540302
634.27751291576692,0.0014572422195831089
634.30549970282016,0.0014507660449931319
634.33348648987339,0.001444074615363981
634.36147327692663,0.001437174623289267
634.38946006397998,0.0014300727613625695
634.41744685103322,0.0014227757221775576
634.44543363808646,0.0014152901983278123
634.47342042513969,0.0014076228824069443
634.50140721219304,0.0013997804670085314
634.52939399924628,0.0013917696447262472
634.55738078629952,0.0013835971081536703
634.58536757335276,0.0013752695498844112
634.61335436040611,0.0013667936625120455
634.64134114745934,0.0013581761386302514
634.66932793451258,0.0013494236708326058
634.69731472156582,0.0013405429517127183
634.72530150861917,0.0013315406738641622
634.75328829567241,0.0013224235298806212
634.78127508272564,0.0013131982123556689
634.80926186977888,0.0013038714138829154
634.83724865683223,0.0012944498270559327
634.86523544388547,0.0012849401444684069
634.8932222309387,0.0012753490587139107
634.92120901799194,0.0012656832623860535
634.94919580504529,0.0012559494480784068
634.97718259209853,0.0012461543083846591
635.00516937915177,0.0012363045358983816
635.033156166205,0.0012264068232131838
635.06114295325824,0.0012164678629226768
635.08912974031159,0.0012064943476204292
635.11711652736483,0.0011964929699001328
635.14510331441807,0.0011864704223553564
635.1730901014713,0.0011764333975797117
635.20107688852465,0.0011663885881667666
635.22906367557789,0.0011563426867102137
635.25705046263113,0.0011463023858036222
635.28503724968436,0.0011362743780406021
635.31302403673772,0.0011262653560147229
635.34101082379095,0.0011162820123196762
635.36899761084419,0.0011063310395490317
635.39698439789743,0.0010964191302963988
635.42497118495078,0.0010865529771553486
635.45295797200401,0.0010767392727195706
635.48094475905725,0.0010669847095826357
635.50893154611049,0.0010572959803381529
635.53691833316384,0.0010476797775796941
635.56490512021708,0.0010381427939009477
635.59289190727031,0.0010286917218954841
635.62087869432355,0.0010193332541569141
635.6488654813769,0.00101007408327881
635.67685226843014,0.0010009209018548577
635.70483905548338,0.00099188040247862909
635.73282584253661,0.00098295927774373387
635.76081262958996,0.00097416422024374752
635.7887994166432,0.00096550192257235153
635.81678620369644,0.00095697907732311953
635.84477299074968,0.00094860237708966255
635.87275977780291,0.00094037851446558977
635.90074656485626,0.00093231418204447981
635.9287333519095,0.00092441607242000766
635.95672013896274,0.00091669087818575063
635.98470692601597,0.000909145291935319
636.01269371306932,0.00090178600626229333
636.04068050012256,0.0008946197137603434
636.0686672871758,0.00088765310702304924
636.09665407422904,0.00088089287864402091
636.12464086128239,0.00087434572121684244
636.15262764833562,0.00086801832733517732
636.18061443538886,0.00086191738959260852
636.2086012224421,0.0008560496005827463
636.23658800949545,0.00085042165289917816
636.26457479654869,0.00084504023913556023
636.29256158360192,0.00083991205188547937
636.32054837065516,0.00083504378374254563
636.34853515770851,0.00083044212730035106
636.37652194476175,0.00082611377515254291
636.40450873181499,0.00082206541989271248
636.43249551886822,0.0008183037541144697
636.46048230592157,0.00081483547041141162
636.48846909297481,0.00081166726137717595
636.51645588002805,0.00080880581960535852
636.54444266708128,0.0008062578376895693
636.57242945413452,0.00080403000822341876
636.60041624118787,0.00080212902380050969
636.62840302824111,0.00080056157701446787
636.65638981529435,0.00079933436045889501
636.68437660234758,0.00079845406672740126
636.71236338940093,0.00079792738841359527
636.74035017645417,0.00079776101811109175
636.76833696350741,0.00079796164841349751
636.79632375056065,0.00079853597191442325
636.824310537614,0.00079949068120748314
636.85229732466723,0.00080083246888628008
636.88028411172047,0.00080256802754442727
636.90827089877371,0.00080470404977553466
636.93625768582706,0.00080724722817322411
636.9642444728803,0.0008102042553310841
636.99223125993353,0.0008135818238427352
637.02021804698677,0.00081738662630178704
637.04820483404012,0.00082162535530186809
637.07619162109336,0.00082630470343655438
637.10417840814659,0.00083143136329947177
637.13216519519983,0.00083701202748423065
637.16015198225318,0.00084305338858446698
637.18813876930642,0.00084956213919374127
637.21612555635966,0.00085654497190568754
637.24411234341289,0.00086400857931391605
637.27209913046613,0.00087195965401203697
637.30008591751948,0.00088040488859369558
637.32807270457272,0.00088935097565243332
637.35605949162596,0.00089880460778189437
637.38404627867919,0.00090877247757568795
637.41203306573254,0.0009192612776274681
637.44001985278578,0.00093027770053076022
637.46800663983902,0.00094182843887921554
637.49599342689226,0.00095392018526644447
637.52398021394561,0.00096660619904879758
637.55196700099884,0.00098030041393853506
637.57995378805208,0.00099558511612557118
637.60794057510532,0.0010130435404740821
637.63592736215867,0.0010332589218483342
637.66391414921191,0.0010568144951123432
637.69190093626514,0.0010842934951303619
637.71988772331838,0.0011162791567665674
637.74787451037173,0.0011533547148852988
637.77586129742497,0.0011961034043504353
637.8038480844782,0.0012451084600262926
637.83183487153144,0.0013009531167770491
637.85982165858479,0.001364220609467154
637.88780844563803,0.001435494172960274
637.91579523269127,0.0015153570421208265
637.9437820197445,0.0016043924518129899
637.97176880679774,0.0017031836369009407
637.99975559385109,0.0018123138322493218
638.02774238090433,0.0019323662727214262
638.05572916795757,0.0020639241931818524
638.0837159550108,0.0022075708284947778
638.11170274206415,0.0023638894135250416
638.13968952911739,0.0025334631831355542
638.16767631617063,0.0027168753721910997
638.19566310322386,0.0029147092155558567
638.22364989027722,0.0031275479480948965
638.25163667733045,0.0033559748046706724
638.27962346438369,0.003600573020148194
638.30761025143693,0.0038619258293916378
638.33559703849028,0.0041406164672663486
638.36358382554351,0.0044372281686342442
638.39157061259675,0.0047523441683605984
638.41955739964999,0.0050867846637709432
638.44754418670334,0.0054455382436507938
638.47553097375658,0.0058371539966830263
638.50351776080981,0.0062702954479494626
638.53150454786305,0.00675362612253052
638.5594913349164,0.0072958095455089482
638.58747812196964,0.0079055092419607949
638.61546490902288,0.0085913887369685488
638.64345169607611,0.0093621115556126316
638.67143848312935,0.010226341222973461
638.6994252701827,0.011192741264135601
638.72741205723594,0.012269975204171644
638.75539884428918,0.013466706568165725
638.78338563134241,0.014791598881198258
638.81137241839576,0.016253315668355885
638.839359205449,0.01786052045470719
638.86734599250224,0.019621876765338237
638.89533277955547,0.021546048125329446
638.92331956660882,0.023641698059770108
638.95130635366206,0.025917490093723634
638.9792931407153,0.028382087752278615
639.00727992776854,0.031044154560515468
639.03526671482189,0.033912354043526688
639.06325350187512,0.036995349726369427
639.09124028892836,0.04030180513413531
639.1192270759816,0.043840383791904775
639.14721386303495,0.047619749224774091
639.17520065008819,0.051648564957792992
639.20318743714142,0.055935494516056755
639.23117422419466,0.060489201424645811
639.25916101124801,0.065318349208660753
639.28714779830125,0.070431601393142793
639.31513458535449,0.07583763373990525
639.34312137240772,0.081546382876943768
639.37110815946107,0.087570124107090003
639.39909494651431,0.09392138667617983
639.42708173356755,0.10061269983012192
639.45506852062078,0.10765659281480106
639.48305530767402,0.11506559487610202
639.51104209472737,0.12285223525994207
639.53902888178061,0.13102904321214276
639.56701566883385,0.13960854797861974
639.59500245588708,0.14860327880525792
639.62298924294043,0.15802576493798115
639.65097602999367,0.16788853562259776
639.67896281704691,0.17820412010502995
639.70694960410015,0.18898504763116247
639.7349363911535,0.200243847446927
639.76292317820673,0.21199304879811676
639.79090996525997,0.22424518093066148
639.81889675231321,0.2369805178682704
639.84688353936656,0.24977924687752048
639.8748703264198,0.26195098348297802
639.90285711347303,0.27280218563817904
639.93084390052627,0.28210325211058512
639.95883068757962,0.2906861626690917
639.98681747463286,0.29953072958102583
640.01480426168609,0.30961147089452856
640.04279104873933,0.3214122542166622
640.07077783579268,0.33453560733710191
640.09876462284592,0.34849212011700997
640.12675140989916,0.36279238241770728
640.15473819695239,0.37694698410046423
640.18272498400563,0.39046651502655128
640.21071177105898,0.40288523646376767
640.23869855811222,0.4140385718679106
640.26668534516546,0.42396933698019323
640.29467213221869,0.43272444301170293
640.32265891927204,0.44035080117355618
640.35064570632528,0.44689532267677884
640.37863249337852,0.45240491873249172
640.40661928043176,0.45692650055178247
640.43460606748511,0.46050697934575135
640.46259285453834,0.46319326632545732
640.49057964159158,0.46503227270200403
640.51856642864482,0.46607090968647946
640.54655321569817,0.4663560884899709
640.57454000275141,0.46593472032356348
640.60252678980464,0.46485386041304128
640.63051357685788,0.46320824787017145
640.65850036391123,0.46120900743855486
640.68648715096447,0.45908468734518448
640.7144739380177,0.4570638358170292
640.74246072507094,0.45537500108106521
640.77044751212429,0.4542467313642658
640.79843429917753,0.45390755479768435
640.82642108623077,0.45450845852937333
640.854407873284,0.45594731797404625
640.88239466033724,0.45807044729777863
640.91038144739059,0.46072416066665811
640.93836823444383,0.463754772246738
640.96635502149707,0.46700859620410412
640.9943418085503,0.47033194670483192
641.02232859560365,0.47358015728693748
641.05031538265689,0.4767083347081526
641.07830216971013,0.47973362403218245
641.10628895676336,0.48267410441728598
641.13427574381672,0.4855478550217337
641.16226253086995,0.48837295500376149
641.19024931792319,0.49116748352164008
641.21823610497643,0.49394951973362844
641.24622289202978,0.49673714279799713
641.27420967908301,0.49954843187298248
641.30219646613625,0.50240146611685477
641.33018325318949,0.50531432468787318
641.35817004024284,0.50830508674430863
641.38615682729608,0.51139183144439659
641.41414361434931,0.51459263794640753
641.44213040140255,0.5179255854086009
641.4701171884559,0.52140875298924982
641.49810397550914,0.52506021984658513
641.52609076256238,0.5288905452390813
641.55407754961561,0.53287952178727049
641.58206433666896,0.53699907478756681
641.6100511237222,0.54122112953305312
641.63803791077544,0.54551761131686194
641.66602469782868,0.54986044543210921
641.69401148488191,0.55422155717191135
641.72199827193526,0.55857287182940207
641.7499850589885,0.56288631469766193
641.77797184604174,0.56713381106982486
641.80595863309497,0.57128728623900715
641.83394542014832,0.57531866549834088
641.86193220720156,0.57919987414090912
641.8899189942548,0.58290283745984506
641.91790578130804,0.58639951211191488
641.94589256836139,0.58966267176731058
641.97387935541462,0.5926659640700308
642.00186614246786,0.59538307943607416
642.0298529295211,0.59778770828142525
642.05783971657445,0.59985354102207677
642.08582650362769,0.6015542680739967
642.11381329068092,0.60286357985317895
642.14180007773416,0.60375516677560825
642.16978686478751,0.60420271925727043
642.19777365184075,0.60417992771414653
642.22576043889399,0.6036696502590907
642.25374722594722,0.60270817413512179
642.28173401300046,0.60135108928444081
642.30972080005381,0.59965401190424084
642.33770758710705,0.5976725581917357
642.36569437416028,0.59546234434411993
642.39368116121352,0.59307892356391034
642.42166794826687,0.59056531784102828
642.44965473532011,0.58793698443346898
642.47764152237335,0.58520571122767351
642.50562830942658,0.58238328611009271
642.53361509647993,0.57948149696716533
642.56160188353317,0.57651213168536652
642.58958867058641,0.57348697815113514
642.61757545763965,0.57041782425092225
642.645562244693,0.56731645787116625
642.67354903174623,0.56419466689834308
642.70153581879947,0.56106423921889126
642.72952260585271,0.55793696271926185
642.75750939290606,0.55482462528589294
642.7854961799593,0.55173901480526077
642.81348296701253,0.54869117576780835
642.84146975406577,0.54568318555346029
642.86945654111912,0.54271117808581915
642.89744332817236,0.53977118087343356
642.92543011522559,0.53685922142481546
642.95341690227883,0.53397132724848917
642.98140368933218,0.53110352585296716
643.00939047638542,0.52825184474679721
643.03737726343866,0.52541231143849187
643.06536405049189,0.5225809534365754
643.09335083754513,0.51975379824957202
643.12133762459848,0.51692687338599419
643.14932441165172,0.51409620635438957
643.17731119870496,0.51125782466327085
643.20529798575819,0.50840775582116204
643.23328477281154,0.50554202733657605
643.26127155986478,0.5026566667180602
643.28925834691802,0.49974770147412728
643.31724513397126,0.49681115911330137
643.34523192102461,0.49384306714409465
643.37321870807784,0.49083945307505572
643.40120549513108,0.48779634441469638
643.42919228218432,0.48470976867154136
643.45717906923767,0.48157575335410185
643.48516585629091,0.4783903259709274
643.51315264334414,0.47514951403053002
643.54113943039738,0.47184934504143372
643.56912621745073,0.46848584651214903
643.59711300450397,0.46505504595122754
643.6250997915572,0.46155297086717995
643.65308657861044,0.45797564876853042
643.68107336566379,0.45431910716378826
643.70906015271703,0.450579472661297
643.73704693977027,0.44675968161136259
643.7650337268235,0.44287375457268302
643.79302051387674,0.43893673022387591
