energy,intensity
624.21228920631825,6.0304983151448867e-05
624.22454641257229,5.8811171377434708e-05
624.23680361882646,5.7329172133070492e-05
624.24906082508051,5.5858951678380035e-05
624.26131803133455,5.4400476273345917e-05
624.27357523758872,5.2953712177951187e-05
624.28583244384276,5.1518625652218968e-05
624.29808965009693,5.0095182956119039e-05
624.31034685635098,4.8683350349674166e-05
624.32260406260502,4.7283094092867451e-05
624.33486126885919,4.5894380445682429e-05
624.34711847511323,4.4517175668141249e-05
624.35937568136728,4.3151446020227283e-05
624.37163288762144,4.1797157761924448e-05
624.38389009387549,4.04542771532542e-05
624.39614730012954,3.9122770454200271e-05
624.4084045063837,3.7802603924746876e-05
624.42066171263775,3.649374382491484e-05
624.4329189188918,3.5196156414688215e-05
624.44517612514596,3.3909807954051526e-05
624.45743333140001,3.2634664703024948e-05
624.46969053765417,3.1370692921581244e-05
624.48194774390822,3.0117858869740173e-05
624.49420495016227,2.8876128807486357e-05
624.50646215641643,2.7645468994804771e-05
624.51871936267048,2.642584569171463e-05
624.53097656892453,2.5217225158200826e-05
624.54323377517869,2.4019573654248654e-05
624.55549098143274,2.28328574398767e-05
624.56774818768679,2.1657042775070161e-05
624.58000539394095,2.0492095919814653e-05
624.592262600195,1.9337983134128162e-05
624.60451980644916,1.8194670677985603e-05
624.61677701270321,1.70621248114046e-05
624.62903421895726,1.5940311794370812e-05
624.64129142521142,1.4829197886870369e-05
624.65354863146547,1.3728749348920268e-05
624.66580583771952,1.2638932440506465e-05
624.67806304397368,1.1559713421615406e-05
624.69032025022773,1.0491058552263447e-05
624.70257745648178,9.4329340924368974e-06
624.71483466273594,8.3853063021224752e-06
624.72709186898999,7.348141441335956e-06
624.73934907524404,6.3214057700639261e-06
624.7516062814982,5.3050655482934056e-06
624.76386348775225,4.2990870360395709e-06
624.77612069400641,3.3034364932801601e-06
624.78837790026046,2.3180801800299777e-06
624.80063510651451,1.3429843562761184e-06
624.81289231276867,3.7811528200603928e-07
624.82514951902272,-5.7656078276599619e-07
624.83740672527676,-1.5210775780526398e-06
624.84966393153093,-2.4554688438661117e-06
624.86192113778498,-3.3797683201927539e-06
624.87417834403902,-4.2940097470448756e-06
624.88643555029319,-5.1982268644344903e-06
624.89869275654723,-6.0924534123484589e-06
624.9109499628014,-6.9767231308069788e-06
624.92320716905544,-7.8510697597973089e-06
624.93546437530949,-8.7155270393313112e-06
624.94772158156366,-9.5701287094205442e-06
624.9599787878177,-1.0414908510052764e-05
624.97223599407175,-1.1249900181239559e-05
624.98449320032591,-1.2075137462992224e-05
624.99675040657996,-1.2890654095299048e-05
625.00900761283401,-1.3696483818171357e-05
625.02126481908817,-1.4492660371620183e-05
625.03352202534222,-1.5279217495634364e-05
625.04577923159638,-1.6056188930232116e-05
625.05803643785043,-1.6823608415402672e-05
625.07029364410448,-1.7581509691156949e-05
625.08255085035864,-1.8329926497505422e-05
625.09480805661269,-1.9068892574437895e-05
625.10706526286674,-1.9798441661964968e-05
625.1193224691209,-2.0518607500096912e-05
625.13157967537495,-2.1229423828823999e-05
625.143836881629,-2.1930924388156642e-05
625.15609408788316,-2.2623142918104797e-05
625.16835129413721,-2.3306113158659272e-05
625.18060850039126,-2.3979868849830161e-05
625.19286570664542,-2.4644443731627254e-05
625.20512291289947,-2.5299871544041851e-05
625.21738011915363,-2.5946186027089714e-05
625.22963732540768,-2.6583420920762505e-05
625.24189453166173,-2.7211609965069916e-05
625.25415173791589,-2.7830786900021295e-05
625.26640894416994,-2.8440985465608763e-05
625.27866615042399,-2.9042239401841756e-05
625.29092335667815,-2.9634582448729361e-05
625.3031805629322,-3.0218048346264229e-05
625.31543776918625,-3.0792670834455516e-05
625.32769497544041,-3.1358483653312096e-05
625.33995218169446,-3.1915520542827086e-05
625.35220938794862,-3.2463815243014471e-05
625.36446659420267,-3.3003401493867702e-05
625.37672380045672,-3.3534313035395566e-05
625.38898100671088,-3.4056583607606476e-05
625.40123821296493,-3.4570246950494399e-05
625.41349541921898,-3.5075336804067836e-05
625.42575262547314,-3.5571886908335025e-05
625.43800983172719,-3.6059931003290365e-05
625.45026703798123,-3.6539502828942123e-05
625.4625242442354,-3.7010636125298324e-05
625.47478145048944,-3.7473364632353823e-05
625.48703865674349,-3.7927722090116648e-05
625.49929586299766,-3.8373742238594575e-05
625.5115530692517,-3.8811458817782939e-05
625.52381027550587,-3.9240905567693542e-05
625.53606748175991,-3.9662116228322012e-05
625.54832468801396,-4.0075124539675974e-05
625.56058189426813,-4.0479964241762848e-05
625.57283910052217,-4.0876669074578754e-05
625.58509630677622,-4.1265272778131102e-05
625.59735351303038,-4.164580909242702e-05
625.60961071928443,-4.2018311757463097e-05
625.62186792553848,-4.2382814513246518e-05
625.63412513179264,-4.2739351099784214e-05
625.64638233804669,-4.3087955257073187e-05
625.65863954430085,-4.3428660725123551e-05
625.6708967505549,-4.3761501243932621e-05
625.68315395680895,-4.4086510553507245e-05
625.69541116306311,-4.4403722393853966e-05
625.70766836931716,-4.4713170504970498e-05
625.71992557557121,-4.5014888626863506e-05
625.73218278182537,-4.5308910499539276e-05
625.74443998807942,-4.559526986299601e-05
625.75669719433347,-4.5874000457240116e-05
625.76895440058763,-4.614513602227769e-05
625.78121160684168,-4.6408710298107373e-05
625.79346881309573,-4.666475702473531e-05
625.80572601934989,-4.6913309942167448e-05
625.81798322560394,-4.7154402790402753e-05
625.8302404318581,-4.7388069309449403e-05
625.84249763811215,-4.7614343239306703e-05
625.8547548443662,-4.7833258319980404e-05
625.86701205062036,-4.8044848291476196e-05
625.87926925687441,-4.824914689379367e-05
625.89152646312846,-4.8446187866938535e-05
625.90378366938262,-4.8636004950916142e-05
625.91604087563667,-4.8818631885726576e-05
625.92829808189072,-4.8994102411375318e-05
625.94055528814488,-4.9162450267867507e-05
625.95281249439893,-4.9323709195203609e-05
625.96506970065309,-4.947791293339033e-05
625.97732690690714,-4.9625095222428406e-05
625.98958411316119,-4.9765289802322997e-05
626.00184131941535,-4.9898530413078845e-05
626.0140985256694,-5.0024850794697193e-05
626.02635573192345,-5.0144284687182885e-05
626.03861293817761,-5.02568658305406e-05
626.05087014443166,-5.0362627964771942e-05
626.0631273506857,-5.0461604829881522e-05
626.07538455693987,-5.0553830165873872e-05
626.08764176319391,-5.0639337712750899e-05
626.09989896944796,-5.0718161210517122e-05
626.11215617570213,-5.0790334399176813e-05
626.12441338195617,-5.085589101873228e-05
626.13667058821034,-5.091486480918836e-05
626.14892779446438,-5.0967289510547617e-05
626.16118500071843,-5.1013198862814238e-05
626.1734422069726,-5.1052626605992223e-05
626.18569941322664,-5.1085606480084499e-05
626.19795661948069,-5.1112172225095054e-05
626.21021382573485,-5.1132357581027706e-05
626.2224710319889,-5.1146196287885707e-05
626.23472823824295,-5.1153722085672881e-05
626.24698544449711,-5.1154968714392907e-05
626.25924265075116,-5.1149969914049372e-05
626.27149985700532,-5.1138759424645799e-05
626.28375706325937,-5.112137098618606e-05
626.29601426951342,-5.1097838338673725e-05
626.30827147576758,-5.1068195222112117e-05
626.32052868202163,-5.1032475376505374e-05
626.33278588827568,-5.0990712541856991e-05
626.34504309452984,-5.0942940458170041e-05
626.35730030078389,-5.0889192865449109e-05
626.36955750703794,-5.0829503503697385e-05
626.3818147132921,-5.0763906112917813e-05
626.39407191954615,-5.0692434433115372e-05
626.40632912580031,-5.0615122204292302e-05
626.41858633205436,-5.0532003166453614e-05
626.43084353830841,-5.0443111059602383e-05
626.44310074456257,-5.0348479623741303e-05
626.45535795081662,-5.0248142598875725e-05
626.46761515707067,-5.0142133725008431e-05
626.47987236332483,-5.0030486742142015e-05
626.49212956957888,-4.9913235390282225e-05
626.50438677583293,-4.9790413409431616e-05
626.51664398208709,-4.9662054539592691e-05
626.52890118834114,-4.9528192520771383e-05
626.54115839459519,-4.9388861092970205e-05
626.55341560084935,-4.924409399619145e-05
626.5656728071034,-4.9093924970441399e-05
626.57793001335756,-4.8938387755720908e-05
626.59018721961161,-4.8777516092036522e-05
626.60244442586566,-4.8611343719390446e-05
626.61470163211982,-4.8439904377784698e-05
626.62695883837387,-4.8263231807226153e-05
626.63921604462791,-4.808135974771676e-05
626.65147325088208,-4.7894321939258536e-05
626.66373045713613,-4.7702152121858477e-05
626.67598766339017,-4.7504884035518568e-05
626.68824486964434,-4.7302551420240526e-05
626.70050207589838,-4.7095188016031748e-05
626.71275928215255,-4.688282756289203e-05
626.7250164884066,-4.6665503800828951e-05
626.73727369466064,-4.6443250469844168e-05
626.74953090091481,-4.6216101309939231e-05
626.76178810716885,-4.598409006112193e-05
626.7740453134229,-4.5747250463393943e-05
626.78630251967706,-4.550561625675648e-05
626.79855972593111,-4.5259221181217786e-05
626.81081693218516,-4.5008098976779186e-05
626.82307413843932,-4.4752283383442032e-05
626.83533134469337,-4.4491808141214597e-05
626.84758855094742,-4.4226706990098233e-05
626.85984575720158,-4.3957013670094061e-05
626.87210296345563,-4.3682761921210626e-05
626.88436016970979,-4.3403985483446628e-05
626.89661737596384,-4.3120718096810761e-05
626.90887458221789,-4.2832993501304146e-05
626.92113178847205,-4.2540845436927635e-05
626.9333889947261,-4.2244307643690326e-05
626.94564620098015,-4.1943413861593225e-05
626.95790340723431,-4.1638197830637021e-05
626.97016061348836,-4.1328693290831016e-05
626.98241781974241,-4.1014933982176135e-05
626.99467502599657,-4.0696953644672953e-05
627.00693223225062,-4.0374786018331033e-05
627.01918943850478,-4.0048464843148003e-05
627.03144664475883,-3.9718023859133637e-05
627.04370385101288,-3.9383496806288503e-05
627.05596105726704,-3.9044917424613093e-05
627.06821826352109,-3.8702319454117303e-05
627.08047546977514,-3.8355736634801681e-05
627.0927326760293,-3.800520270666659e-05
627.10498988228335,-3.7650751409722123e-05
627.1172470885374,-3.7292416483968747e-05
627.12950429479156,-3.6930231669406729e-05
627.14176150104561,-3.6564230706046346e-05
627.15401870729966,-3.6194447333887956e-05
627.16627591355382,-3.5820915292931717e-05
627.17853311980787,-3.5443668323188145e-05
627.19079032606203,-3.506274016465393e-05
627.20304753231608,-3.4678164557339749e-05
627.21530473857013,-3.4289975241245707e-05
627.22756194482429,-3.3898205956371837e-05
627.23981915107834,-3.3502890442728983e-05
627.25207635733238,-3.3104062440317274e-05
627.26433356358655,-3.2701755689136441e-05
627.2765907698406,-3.2296003929197751e-05
627.28884797609464,-3.1886840900501018e-05
627.30110518234881,-3.147430034304601e-05
627.31336238860285,-3.1058415996844163e-05
627.32561959485702,-3.0639221601891218e-05
627.33787680111107,-3.0216750898198733e-05
627.35013400736511,-2.9791037625766374e-05
627.36239121361928,-2.9362115524593843e-05
627.37464841987332,-2.8930018334692741e-05
627.38690562612737,-2.8494779796062702e-05
627.39916283238153,-2.8056433648703325e-05
627.41142003863558,-2.7615013632626277e-05
627.42367724488963,-2.7170553487831291e-05
627.43593445114379,-2.6723086954317737e-05
627.44819165739784,-2.6272647772097604e-05
627.46044886365189,-2.5819269681170354e-05
627.47270606990605,-2.5362986421535381e-05
627.4849632761601,-2.4903831733204792e-05
627.49722048241426,-2.4441839356173804e-05
627.50947768866831,-2.3977043030454421e-05
627.52173489492236,-2.3509476496046153e-05
627.53399210117652,-2.3039173492948287e-05
627.54624930743057,-2.2566167761173091e-05
627.55850651368462,-2.2090493040719871e-05
627.57076371993878,-2.1612183071587904e-05
627.58302092619283,-2.1131271593789584e-05
627.59527813244688,-2.0647792347324166e-05
627.60753533870104,-2.0161779072190765e-05
627.61979254495509,-1.9673265508402041e-05
627.63204975120925,-1.9182285395952653e-05
627.6443069574633,-1.8688872474855164e-05
627.65656416371735,-1.8193060485108777e-05
627.66882136997151,-1.7694883166712526e-05
627.68107857622556,-1.7194374259679232e-05
627.69333578247961,-1.6691567504007993e-05
627.70559298873377,-1.6186496639697568e-05
627.71785019498782,-1.5679195406761186e-05
627.73010740124187,-1.5169697545197727e-05
627.74236460749603,-1.4658036795006045e-05
627.75462181375008,-1.4144246896199244e-05
627.76687902000424,-1.362836158877151e-05
627.77913622625829,-1.3110414612736018e-05
627.79139343251234,-1.2590439708091647e-05
627.8036506387665,-1.206847061483714e-05
627.81590784502055,-1.154454107298582e-05
627.8281650512746,-1.10186848225365e-05
627.84042225752876,-1.0490935603487943e-05
627.85267946378281,-9.9613271558535502e-06
627.86493667003685,-9.4298932196321028e-06
627.87719387629102,-8.8966675348222192e-06
627.88945108254507,-8.3616838414374697e-06
627.90170828879911,-7.8249758794766118e-06
627.91396549505328,-7.2865773889381453e-06
627.92622270130732,-6.7465221098358133e-06
627.93847990756149,-6.2048437821631894e-06
627.95073711381553,-5.6615761459338677e-06
627.96299432006958,-5.1167529411466969e-06
627.97525152632375,-4.5704079078000348e-06
627.98750873257779,-4.022574785907726e-06
627.99976593883184,-3.4732873154683856e-06
628.012023145086,-2.9225792364804356e-06
628.02428035134005,-2.3704842889578394e-06
628.0365375575941,-1.8170362128990257e-06
628.04879476384826,-1.2622687483025825e-06
628.06105197010231,-7.0621563518238502e-07
628.07330917635647,-1.489106135317256e-07
628.08556638261052,4.0961257663534094e-07
628.09782358886457,9.6932019532044344e-07
628.11008079511873,1.5301785025250244e-06
628.12233800137278,2.0921537582351713e-06
628.13459520762683,2.6552122224523843e-06
628.14685241388099,3.2193201551782108e-06
628.15910962013504,3.7844438163986368e-06
628.17136682638909,4.3505494661151793e-06
628.18362403264325,4.9176033643295416e-06
628.1958812388973,5.4855717710275335e-06
628.20813844515135,6.0544209462107837e-06
628.22039565140551,6.6241171498809381e-06
628.23265285765956,7.1946266420237317e-06
628.24491006391372,7.7659156826462044e-06
628.25716727016777,8.3379505317340606e-06
628.26942447642182,8.9106974492889361e-06
628.28168168267598,9.4841226953126528e-06
628.29393888893003,1.005819252979077e-05
628.30619609518408,1.0632873212725041e-05
628.31845330143824,1.120813100411717e-05
628.33071050769229,1.1783932163952868e-05
628.34296771394634,1.2360242952233798e-05
628.3552249202005,1.2937029628961639e-05
628.36748212645455,1.3514258454122121e-05
628.37973933270871,1.4091895687722299e-05
628.39199653896276,1.4669907589747813e-05
628.40425374521681,1.5248260420200379e-05
628.41651095147097,1.5826920439081738e-05
628.42876815772502,1.6405853906377532e-05
628.44102536397907,1.698502708208941e-05
628.45328257023323,1.756440622621919e-05
628.46553977648728,1.8143957598752476e-05
628.47779698274132,1.8723647459690994e-05
628.49005418899549,1.9303442069036486e-05
628.50231139524954,1.9883307686774563e-05
628.51456860150358,2.0463210572906921e-05
628.52682580775775,2.1043116987435396e-05
628.53908301401179,2.1622993190345519e-05
628.55134022026596,2.2202805441644409e-05
628.56359742652,2.2782520001317711e-05
628.57585463277405,2.3362103129367219e-05
628.58811183902822,2.3941521085794549e-05
628.60036904528226,2.4520740130585301e-05
628.61262625153631,2.5099726523741333e-05
628.62488345779047,2.5678446525264355e-05
628.63714066404452,2.625686639513989e-05
628.64939787029857,2.6834952393369743e-05
628.66165507655273,2.7412670779955663e-05
628.67391228280678,2.7989987814883282e-05
628.68616948906094,2.8566869758159663e-05
628.69842669531499,2.9143282869770408e-05
628.71068390156904,2.9719193409717283e-05
628.7229411078232,3.0294567638002037e-05
628.73519831407725,3.086937181461022e-05
628.7474555203313,3.1443572199543718e-05
628.75971272658546,3.2017135052804093e-05
628.77196993283951,3.2590026634377055e-05
628.78422713909356,3.3162213204264321e-05
628.79648434534772,3.3733661022467581e-05
628.80874155160177,3.4304336348972568e-05
628.82099875785593,3.4874205443786236e-05
628.83325596410998,3.5443234566894404e-05
628.84551317036403,3.6011389978298662e-05
628.85777037661819,3.6578637938000637e-05
628.87002758287224,3.7144944705986245e-05
628.88228478912629,3.7710276542256999e-05
628.89454199538045,3.8274599706814624e-05
628.9067992016345,3.8837880459644938e-05
628.91905640788855,3.940008506074953e-05
628.93131361414271,3.9961179770130008e-05
628.94357082039676,4.0521130847772288e-05
628.95582802665081,4.107990455367795e-05
628.96808523290497,4.163746714784859e-05
628.98034243915902,4.2193784890270082e-05
628.99259964541318,4.2748824040949258e-05
629.00485685166723,4.3302550859872094e-05
629.01711405792128,4.3854931607040199e-05
629.02937126417544,4.4405932542454904e-05
629.04162847042949,4.4955519926102462e-05
629.05388567668354,4.5503660017984271e-05
629.0661428829377,4.6050319078101805e-05
629.07840008919175,4.6595463366441351e-05
629.09065729544579,4.7139059143004246e-05
629.10291450169996,4.7681072667791895e-05
629.115171707954,4.8221470200790621e-05
629.12742891420817,4.8760218002006808e-05
629.13968612046222,4.9297282331426852e-05
629.15194332671626,4.9832629449052058e-05
629.16420053297043,5.0366225614883796e-05
629.17645773922447,5.0898037088908509e-05
629.18871494547852,5.1428030131127488e-05
629.20097215173269,5.1956171001542037e-05
629.21322935798673,5.2482425960138618e-05
629.22548656424078,5.3006761266918658e-05
629.23774377049494,5.3529143181883215e-05
629.25000097674899,5.4049537965019073e-05
629.26225818300304,5.4567911876327412e-05
629.2745153892572,5.5084231175809286e-05
629.28677259551125,5.5598462123451578e-05
629.29902980176541,5.6110570979260254e-05
629.31128700801946,5.6620524003222015e-05
629.32354421427351,5.7128287455338049e-05
629.33580142052767,5.7633827595609409e-05
629.34805862678172,5.81371106840231e-05
629.36031583303577,5.8638102980580162e-05
629.37257303928993,5.9136770745281567e-05
629.38483024554398,5.9633080238114435e-05
629.39708745179803,6.0126997719079751e-05
629.40934465805219,6.061848944817844e-05
629.42160186430624,6.1107521685397731e-05
629.4338590705604,6.1594060690743115e-05
629.44611627681445,6.2078072724201821e-05
629.4583734830685,6.2559524045774869e-05
629.47063068932266,6.3038380915463019e-05
629.48288789557671,6.3514609593253617e-05
629.49514510183076,6.3988176339147614e-05
629.50740230808492,6.4459047413145717e-05
629.51965951433897,6.4927189075235541e-05
629.53191672059302,6.5392567585417739e-05
629.54417392684718,6.5855149203693114e-05
629.55643113310123,6.6314900190049309e-05
629.56868833935528,6.6771786804487111e-05
629.58094554560944,6.7225775307006971e-05
629.59320275186349,6.7676831957596856e-05
629.60545995811765,6.8124923016261567e-05
629.6177171643717,6.8570014742989059e-05
629.62997437062575,6.9012073397779956e-05
629.64223157687991,6.9451065240634641e-05
629.65448878313396,6.9886956531541231e-05
629.66674598938801,7.0319713530500339e-05
629.67900319564217,7.0749302497512238e-05
629.69126040189622,7.1175689692565248e-05
629.70351760815026,7.1598841375659886e-05
629.71577481440443,7.2018723806796224e-05
629.72803202065847,7.2435303245962961e-05
629.74028922691264,7.2848545953164165e-05
629.75254643316669,7.32584181883884e-05
629.76480363942073,7.366488621163609e-05
629.7770608456749,7.4067916282907154e-05
629.78931805192894,7.4467474662190579e-05
629.80157525818299,7.4863527609486433e-05
629.81383246443716,7.5256041384794719e-05
629.8260896706912,7.5644982248104491e-05
629.83834687694525,7.6030316459415844e-05
629.85060408319941,7.6412010278728619e-05
629.86286128945346,7.6790029966032017e-05
629.87511849570751,7.7164341781326123e-05
629.88737570196167,7.7534911984610558e-05
629.89963290821572,7.7901706835874931e-05
629.91189011446988,7.8264692595122321e-05
629.92414732072393,7.8623835522342403e-05
629.93640452697798,7.8979101877534977e-05
629.94866173323214,7.9330457920699502e-05
629.96091893948619,7.9677869911825953e-05
629.97317614574024,8.002130411091398e-05
