energy,intensity
629.99553449661744,-0.0045370952718143511
630.02352128367068,-0.0044021897422738716
630.05150807072391,-0.0042690844897962134
630.07949485777726,-0.0041377690271329638
630.1074816448305,-0.0040082328670373096
630.13546843188374,-0.0038804655222608314
630.16345521893697,-0.0037544565055556501
630.19144200599033,-0.0036301953296733825
630.21942879304356,-0.0035076715073671565
630.2474155800968,-0.003386874551388583
630.27540236715004,-0.0032677939744897811
630.30338915420339,-0.0031504192894223973
630.33137594125662,-0.0030347400089395034
630.35936272830986,-0.0029207456457927381
630.3873495153631,-0.0028084257127342195
630.41533630241645,-0.0026977697225156216
630.44332308946969,-0.0025887671878899623
630.47130987652292,-0.0024814076216089069
630.49929666357616,-0.0023756805364245751
630.52728345062951,-0.0022715754450886661
630.55527023768275,-0.0021690818603541436
630.58325702473599,-0.0020681892949727019
630.61124381178922,-0.0019688872616964595
630.63923059884257,-0.0018711652732771415
630.66721738589581,-0.0017750128424676597
630.69520417294905,-0.0016804194820197349
630.72319096000228,-0.0015873747046854848
630.75117774705552,-0.0014958680232170286
630.77916453410887,-0.0014058889503661231
630.80715132116211,-0.001317426998885617
630.83513810821535,-0.0012304716815272621
630.86312489526858,-0.0011450125110431773
630.89111168232193,-0.0010610390001851418
630.91909846937517,-0.00097854066170595952
630.94708525642841,-0.00089750700835740328
630.97507204348165,-0.00081792755289159219
631.003058830535,-0.00073979180806033084
631.03104561758823,-0.00066308928661637436
631.05903240464147,-0.00058780950131151889
631.08701919169471,-0.00051394196489788573
631.11500597874806,-0.0004414761901273004
631.1429927658013,-0.00037040168975247196
631.17097955285453,-0.00030070797652522119
631.19896633990777,-0.00023238456319766789
631.22695312696112,-0.00016542096252166168
631.25493991401436,-9.9806687249864019e-05
631.28292670106759,-3.5531250134121013e-05
631.31091348812083,2.7415836073448989e-05
631.33890027517418,8.9045058620974881e-05
631.36688706222742,0.00014936690475583696
631.39487384928066,0.00020839186172616887
631.42286063633389,0.00026613041677985293
631.45084742338713,0.00032259305716476883
631.47883421044048,0.00037779027012901966
631.50682099749372,0.00043173254292003862
631.53480778454696,0.00048443036278593296
631.56279457160019,0.00053589421697458346
631.59078135865354,0.00058613459273407361
631.61876814570678,0.00063516197731187571
631.64675493276002,0.00068298685795607772
631.67474171981326,0.00072961972191456018
631.70272850686661,0.00077507105643538664
631.73071529391984,0.00081935134876606904
631.75870208097308,0.00086247108615467537
631.78668886802632,0.00090444075584908694
631.81467565507967,0.0009452708450973479
631.84266244213291,0.00098497184114700693
631.87064922918614,0.0010235542312461152
631.89863601623938,0.0010610285026425525
631.92662280329273,0.0010974051425843448
631.95460959034597,0.0011326946383190786
631.9825963773992,0.0011669074770947856
632.01058316445244,0.0012000541461593447
632.03856995150579,0.0012321451327607673
632.06655673855903,0.0012631909241466721
632.09454352561227,0.0012932020075650747
632.1225303126655,0.0013221888702638529
632.15051709971885,0.0013501619994910029
632.17850388677209,0.0013771318824941764
632.20649067382533,0.0014031090065213705
632.23447746087857,0.0014281038588204661
632.2624642479318,0.0014521269266393453
632.29045103498515,0.0014751886972259793
632.31843782203839,0.0014972996578280623
632.34642460909163,0.0015184702956935723
632.37441139614486,0.0015387110980703881
632.40239818319822,0.0015580325522064696
632.43038497025145,0.0015764451453495391
632.45837175730469,0.001593959364747559
632.48635854435793,0.0016105856976484105
632.51434533141128,0.001626334631300036
632.54233211846451,0.001641216652950189
632.57031890551775,0.0016552422498468159
632.59830569257099,0.0016684219092377986
632.62629247962434,0.0016807661183710664
632.65427926667758,0.0016922853644943999
632.68226605373081,0.0017029901348557318
632.71025284078405,0.0017128909167029433
632.7382396278374,0.0017219981972839502
632.76622641489064,0.0017303224638465615
632.79421320194388,0.0017378742036386939
632.82219998899711,0.0017446639039082315
632.85018677605046,0.0017507020519030763
632.8781735631037,0.001755999134871061
632.90616035015694,0.0017605656400600926
632.93414713721018,0.0017644120547180523
632.96213392426341,0.001767548866092821
632.99012071131676,0.0017699865614322879
633.01810749837,0.0017717356279843149
633.04609428542324,0.0017728065529967942
633.07408107247647,0.0017732098237176067
633.10206785952983,0.0017729559273946306
633.13005464658306,0.0017720553512757503
633.1580414336363,0.0017705185826088457
633.18602822068954,0.0017683561086417987
633.21401500774289,0.0017655784166224779
633.24200179479612,0.0017621959937987861
633.26998858184936,0.0017582193274185954
633.2979753689026,0.0017536589047297861
633.32596215595595,0.0017485252129802167
633.35394894300919,0.0017428287394178118
633.38193573006242,0.001736579971290432
633.40992251711566,0.0017297893958459572
633.43790930416901,0.001722467500332238
633.46589609122225,0.0017146247719972167
633.49388287827549,0.0017062716980887436
633.52186966532872,0.0016974187658547004
633.54985645238207,0.0016880764625429295
633.57784323943531,0.0016782552754013877
633.60583002648855,0.0016679656916779191
633.63381681354178,0.0016572181986204049
633.66180360059502,0.0016460232834767253
633.68979038764837,0.0016343914334947137
633.71777717470161,0.0016223331359223468
633.74576396175485,0.0016098588780074576
633.77375074880808,0.0015969791469979285
633.80173753586143,0.0015837044301415845
633.82972432291467,0.0015700452146864153
633.85771110996791,0.0015560119878802485
633.88569789702115,0.0015416152369709662
633.9136846840745,0.0015268654492063872
633.94167147112773,0.0015117731118345135
633.96965825818097,0.001496348712103167
633.99764504523421,0.0014806027372602274
634.02563183228756,0.0014645456745535112
634.0536186193408,0.0014481880112310293
634.08160540639403,0.001431540234540599
634.10959219344727,0.001414612831730101
634.13757898050062,0.0013974162900473443
634.16556576755386,0.0013799610967403524
634.19355255460709,0.001362257739056935
634.22153934166033,0.0013443167042449743
634.24952612871368,0.001326148479552276
634.27751291576692,0.0013077635522268699
634.30549970282016,0.0012891724095165629
634.33348648987339,0.0012703855386692368
634.36147327692663,0.0012514134269327717
634.38946006397998,0.001232266561554971
634.41744685103322,0.0012129554297838714
634.44543363808646,0.0011934905188672766
634.47342042513969,0.0011738823160530672
634.50140721219304,0.0011541413085890441
634.52939399924628,0.0011342779837232489
634.55738078629952,0.0011143028287034827
634.58536757335276,0.001094226330777626
634.61335436040611,0.0010740589771934784
634.64134114745934,0.0010538112551990843
634.66932793451258,0.0010334936520422435
634.69731472156582,0.0010131166549708364
634.72530150861917,0.00099269075123266143
634.75328829567241,0.00097222642807576578
634.78127508272564,0.00095173417274794744
634.80926186977888,0.00093122447249708695
634.83724865683223,0.00091070781457098257
634.86523544388547,0.00089019468621768204
634.8932222309387,0.00086969557468498295
634.92120901799194,0.00084922096722076608
634.94919580504529,0.00082878135107282978
634.97718259209853,0.00080838721348922135
635.00516937915177,0.00078804904171773861
635.033156166205,0.00076777732300626234
635.06114295325824,0.00074758254460267394
635.08912974031159,0.00072747519375477242
635.11711652736483,0.00070746575771060292
635.14510331441807,0.00068756472371796435
635.1730901014713,0.00066778257902473735
635.20107688852465,0.00064812981087872409
635.22906367557789,0.00062861690652796492
635.25705046263113,0.00060925435322026059
635.28503724968436,0.00059005263820349242
635.31302403673772,0.00057102224872546451
635.34101082379095,0.00055217367203421245
635.36899761084419,0.00053351739537753969
635.39698439789743,0.00051506390600332733
635.42497118495078,0.0004968236911593823
635.45295797200401,0.00047880723809373455
635.48094475905725,0.00046102503405419013
635.50893154611049,0.00044348756628863025
635.53691833316384,0.00042620532204486612
635.56490512021708,0.00040918878857091945
635.59289190727031,0.00039244845311460058
635.62087869432355,0.00037599480292379011
635.6488654813769,0.00035983832524630457
635.67685226843014,0.00034398950733015597
635.70483905548338,0.0003284588364231592
635.73282584253661,0.00031325679977319541
635.76081262958996,0.00029839388462808583
635.7887994166432,0.00028388057823583234
635.81678620369644,0.00026973679766213027
635.84477299074968,0.00025603551845391413
635.87275977780291,0.00024286825860034213
635.90074656485626,0.00023032655553605104
635.9287333519095,0.00021850194669582987
635.95672013896274,0.00020748596951431284
635.98470692601597,0.00019737016142618651
636.01269371306932,0.0001882460598661027
636.04068050012256,0.00018020520226882236
636.0686672871758,0.000173339126068993
636.09665407422904,0.00016773936870130121
636.12464086128239,0.00016349746760041918
636.15262764833562,0.00016070496020106838
636.18061443538886,0.00015945338393791536
636.2086012224421,0.00015983427624564667
636.23658800949545,0.00016193917455896114
636.26457479654869,0.00016585961631252849
636.29256158360192,0.00017168713894104041
636.32054837065516,0.00017951327987918354
636.34853515770851,0.00018942957656168898
636.37652194476175,0.00020152756642316327
636.40450873181499,0.00021589878689832879
636.43249551886822,0.00023263477542187228
636.46048230592157,0.00025182706942856342
636.48846909297481,0.00027356720635293317
636.51645588002805,0.00029794672362974098
636.54444266708128,0.00032505715869367361
636.57242945413452,0.00035499004897941749
636.60041624118787,0.00038783693192179886
636.62840302824111,0.00042368934495523759
636.65638981529435,0.00046263882551454797
636.68437660234758,0.00050477691103441638
636.71236338940093,0.00055019513894972094
636.74035017645417,0.00059898504669477913
636.76833696350741,0.00065123817170445605
636.79632375056065,0.00070704605141343755
636.824310537614,0.00076650022325665972
636.85229732466723,0.00082969222466832619
636.88028411172047,0.00089671359308335797
636.90827089877371,0.00096765586593644136
636.93625768582706,0.001042610580662576
636.9642444728803,0.0011216692746958397
636.99223125993353,0.001204923485471215
637.02021804698677,0.0012924647504233891
637.04820483404012,0.0013843846069874304
637.07619162109336,0.0014807745925972794
637.10417840814659,0.0015817262446879872
637.13216519519983,0.0016873311006942401
637.16015198225318,0.0017976806980511831
637.18813876930642,0.0019128665741926063
637.21612555635966,0.0020329802665536357
637.24411234341289,0.0021581133125689565
637.27209913046613,0.0022883572496732556
637.30008591751948,0.0024238036153017817
637.32807270457272,0.0025645439468881199
637.35605949162596,0.0027106697818674971
637.38404627867919,0.0028622726576746004
637.41203306573254,0.003019444111744765
637.44001985278578,0.0031822756815114016
637.46800663983902,0.0033508589044098235
637.49599342689226,0.0035252853178747191
637.52398021394561,0.0037058933634964157
637.55196700099884,0.0038949338339035085
637.57995378805208,0.0040955501525171256
637.60794057510532,0.0043108907727751437
637.63592736215867,0.0045441041481164299
637.66391414921191,0.0047983387319769774
637.69190093626514,0.0050767429777955715
637.71988772331838,0.0053824653390100912
637.74787451037173,0.0057186542690598431
637.77586129742497,0.0060884582213799861
637.8038480844782,0.0064950256494097011
637.83183487153144,0.006941505006586861
637.85982165858479,0.0074310447463514255
637.88780844563803,0.0079667933221373097
637.91579523269127,0.0085518991873842834
637.9437820197445,0.0091895107955302282
637.97176880679774,0.0098827766000130213
637.99975559385109,0.010634845054273714
638.02774238090433,0.011448864611744096
638.05572916795757,0.012327983725864966
638.0837159550108,0.013275350850074207
638.11170274206415,0.01429411443781398
638.13968952911739,0.015387422942513908
638.16767631617063,0.016558424817615845
638.19566310322386,0.017810268516557679
638.22364989027722,0.019146102492782882
638.25163667733045,0.020569075199718491
638.27962346438369,0.022082335090807641
638.30761025143693,0.023689030619488204
638.33559703849028,0.025392310239205178
638.36358382554351,0.02719532240338262
638.39157061259675,0.029101215565465122
638.41955739964999,0.031115308099452055
638.44754418670334,0.033281089312766098
638.47553097375658,0.035674652841361627
638.50351776080981,0.038373140241992072
638.53150454786305,0.041453693071402474
638.5594913349164,0.044993452886353237
638.58747812196964,0.049069561243560884
638.61546490902288,0.053759159699783815
638.64345169607611,0.059139389811767064
638.67143848312935,0.065287393136255603
638.6994252701827,0.072280300587163587
638.72741205723594,0.080087403986733058
638.75539884428918,0.088304851376758656
638.78338563134241,0.096448139331289748
638.81137241839576,0.10406818192283708
638.839359205449,0.11124710011860564
638.86734599250224,0.11847658242863575
638.89533277955547,0.12625889009445279
638.92331956660882,0.13505805347526428
638.95130635366206,0.14493938011472524
638.9792931407153,0.15573110031169266
639.00727992776854,0.16725830761866312
639.03526671482189,0.17934609558818321
639.06325350187512,0.19181955777265075
639.09124028892836,0.20450378772461042
639.1192270759816,0.21722387899655871
639.14721386303495,0.22980492514104284
639.17520065008819,0.24207201971045658
639.20318743714142,0.25385025625734808
639.23117422419466,0.26496472833421386
639.25916101124801,0.27524052949359024
639.28714779830125,0.28450275328975244
639.31513458535449,0.29266244844641542
639.34312137240772,0.29997161273945755
639.37110815946107,0.30676676928750751
639.39909494651431,0.31338444120911296
639.42708173356755,0.32016115162290432
639.45506852062078,0.32743342364748323
639.48305530767402,0.3355377804014516
639.51104209472737,0.34481074500345166
639.53902888178061,0.35558884057201096
639.56701566883385,0.36820859022576646
639.59500245588708,0.3830065170833199
639.62298924294043,0.40023372996567796
639.65097602999367,0.41935301051712681
639.67896281704691,0.43940138029120895
639.70694960410015,0.45941170438807138
639.7349363911535,0.47841684790793487
639.76292317820673,0.4954496759507887
639.79090996525997,0.50954353158292054
639.81889675231321,0.52032577109252032
639.84688353936656,0.52917628892487767
639.8748703264198,0.53779660381994276
639.90285711347303,0.54788854336851212
639.93084390052627,0.56122757241753796
639.95883068757962,0.57975765125532475
639.98681747463286,0.60544620432580265
640.01480426168609,0.64022776129302428
640.04279104873933,0.68298827421593233
640.07077783579268,0.7271376319421694
640.09876462284592,0.76551669521081955
640.12675140989916,0.79370877855749189
640.15473819695239,0.81538564713961004
640.18272498400563,0.83570293268450691
640.21071177105898,0.8594661570260852
640.23869855811222,0.88702652865953824
640.26668534516546,0.91566783839351851
640.29467213221869,0.94261330334227167
640.32265891927204,0.96525696463821042
640.35064570632528,0.98259929733346563
640.37863249337852,0.99452152443672515
640.40661928043176,1.0009139094149035
640.43460606748511,1.0019121244193017
640.46259285453834,0.99940344638619094
640.49057964159158,0.99603598880301325
640.51856642864482,0.99331082564348294
640.54655321569817,0.98916844561261019
640.57454000275141,0.98086242389891065
640.60252678980464,0.96565124917967138
640.63051357685788,0.94242028746467132
640.65850036391123,0.91402574611493603
640.68648715096447,0.88391828635307945
640.7144739380177,0.85494199549236283
640.74246072507094,0.82742376469956602
640.77044751212429,0.80103761601824786
640.79843429917753,0.77545767491416606
640.82642108623077,0.75076159883026528
640.854407873284,0.72834426707543942
640.88239466033724,0.70986888948296478
640.91038144739059,0.6968429818282974
640.93836823444383,0.6884629272533358
640.96635502149707,0.68215541496086629
640.9943418085503,0.67530215230833535
641.02232859560365,0.66553378667350449
641.05031538265689,0.65323476553900972
641.07830216971013,0.64050183046582276
641.10628895676336,0.62945171325394955
641.13427574381672,0.62115120404911961
641.16226253086995,0.61440636428068407
641.19024931792319,0.60772966713869969
641.21823610497643,0.60010605876218825
641.24622289202978,0.59225548501133074
641.27420967908301,0.5852960446400336
641.30219646613625,0.58034552466745792
641.33018325318949,0.57815249450855011
641.35817004024284,0.57838199662758005
641.38615682729608,0.58050133009885974
641.41414361434931,0.58397779399670158
641.44213040140255,0.58827868739542177
641.4701171884559,0.59287130936935462
641.49810397550914,0.59723043987487523
641.52609076256238,0.60105386144301343
641.55407754961561,0.60429497409480393
641.58206433666896,0.6069212198389855
641.6100511237222,0.60890004068426629
641.63803791077544,0.61019887863938727
641.66602469782868,0.61078517571307789
641.69401148488191,0.61062637391406771
641.72199827193526,0.60968991525108041
641.7499850589885,0.60794324173285241
641.77797184604174,0.60535379536811196
641.80595863309497,0.60188901816558738
641.83394542014832,0.59751635213398879
641.86193220720156,0.59220323928208096
641.8899189942548,0.58591712161857734
641.91790578130804,0.57862916116763086
641.94589256836139,0.57040742520777321
641.97387935541462,0.56142364229969366
642.00186614246786,0.55185461414914527
642.0298529295211,0.54187714246191232
642.05783971657445,0.53166802894373788
642.08582650362769,0.52140407530048993
642.11381329068092,0.51126208323791222
642.14180007773416,0.50141885446178891
642.16978686478751,0.49205119067786784
642.19777365184075,0.48333589359201029
642.22576043889399,0.47541612006435197
642.25374722594722,0.46823894555516027
642.28173401300046,0.46168060588599108
642.30972080005381,0.45561724052425384
642.33770758710705,0.44992498893743044
642.36569437416028,0.44447999059292864
642.39368116121352,0.43915855179310281
642.42166794826687,0.43387016646444271
642.44965473532011,0.42859733088326912
642.47764152237335,0.42333225927788781
642.50562830942658,0.41806716587662501
642.53361509647993,0.41279426490778681
642.56160188353317,0.40750577059974291
642.58958867058641,0.4021938971807989
642.61757545763965,0.39685150482525339
642.645562244693,0.39151017232763696
642.67354903174623,0.38626147042482217
642.70153581879947,0.38120212788980978
642.72952260585271,0.37642887349562204
642.75750939290606,0.3720384360152646
642.7854961799593,0.36812754422179578
642.81348296701253,0.36481823753945214
642.84146975406577,0.36253786159344609
642.86945654111912,0.36191612084692193
642.89744332817236,0.36358634291308173
642.92543011522559,0.36800600550216667
642.95341690227883,0.37392412929164576
642.98140368933218,0.37912848732022753
643.00939047638542,0.38140431815282566
643.03737726343866,0.37970198791294363
643.06536405049189,0.37533451945046203
643.09335083754513,0.36990084542367152
643.12133762459848,0.36469947185597656
643.14932441165172,0.35994992014685706
643.17731119870496,0.35562956996861539
643.20529798575819,0.3517158009935758
643.23328477281154,0.34818599289404928
643.26127155986478,0.34501752534238861
643.28925834691802,0.34218777801090311
643.31724513397126,0.33967306089860272
643.34523192102461,0.33744379726461199
643.37321870807784,0.33546839609034984
643.40120549513108,0.33371526459265466
643.42919228218432,0.33215280998837493
643.45717906923767,0.33074943949435343
643.48516585629091,0.32947356032744962
643.51315264334414,0.3282935797045059
643.54113943039738,0.32717790484237042
643.56912621745073,0.32609494295788694
643.59711300450397,0.32501310126791255
643.6250997915572,0.32390078698929103
643.65308657861044,0.32272640733887059
643.68107336566379,0.32145836953349421
643.70906015271703,0.32006527881860397
643.73704693977027,0.31852934817353767
643.7650337268235,0.31685493986876484
643.79302051387674,0.31504845065784437
643.82100730093009,0.31311627729432689
