energy,intensity
629.99553449661744,-0.0087856961065963836
630.02352128367068,-0.0095473629177434093
630.05150807072391,-0.010258249487350539
630.07949485777726,-0.010919327424580783
630.1074816448305,-0.011531568338589163
630.13546843188374,-0.012095943838538896
630.16345521893697,-0.012613425533590374
630.19144200599033,-0.013084985032905838
630.21942879304356,-0.013511593945641873
630.2474155800968,-0.013894223880960892
630.27540236715004,-0.014233846448023304
630.30338915420339,-0.014531433255990642
630.33137594125662,-0.014787955914020901
630.35936272830986,-0.015004386031275798
630.3873495153631,-0.01518169521691572
630.41533630241645,-0.015320855080101578
630.44332308946969,-0.015422837229992653
630.47130987652292,-0.015488613275750006
630.49929666357616,-0.015519154826534027
630.52728345062951,-0.015515433491505057
630.55527023768275,-0.01547842087982353
630.58325702473599,-0.015409088600649918
630.61124381178922,-0.015308408263144623
630.63923059884257,-0.015177351476467468
630.66721738589581,-0.015016889849779924
630.69520417294905,-0.014827994992241935
630.72319096000228,-0.014611638513013907
630.75117774705552,-0.014368792021256243
630.77916453410887,-0.01410042712612823
630.80715132116211,-0.013807515436792444
630.83513810821535,-0.013491028562408271
630.86312489526858,-0.013151938112136108
630.89111168232193,-0.012791215695134861
630.91909846937517,-0.012409832920567869
630.94708525642841,-0.012008761397594128
630.97507204348165,-0.011588972735374035
631.003058830535,-0.011151438543066203
631.03104561758823,-0.010697130429834585
631.05903240464147,-0.010227020004837859
631.08701919169471,-0.0097420788772364306
631.11500597874806,-0.0092432786561886596
631.1429927658013,-0.0087315909508589983
631.17097955285453,-0.008207987370405876
631.19896633990777,-0.0076734395239896969
631.22695312696112,-0.0071289190207686299
631.25493991401436,-0.0065753974699075211
631.28292670106759,-0.006013846480564581
631.31091348812083,-0.0054452376619002233
631.33890027517418,-0.0048705426230725097
631.36688706222742,-0.0042907329732465305
631.39487384928066,-0.0037067803215803581
631.42286063633389,-0.0031196562772344127
631.45084742338713,-0.0025303324493690989
631.47883421044048,-0.0019397804471424304
631.50682099749372,-0.0013489718797196158
631.53480778454696,-0.00075887835625866357
631.56279457160019,-0.00017047148591998974
631.59078135865354,0.00041527712213837312
631.61876814570678,0.00099739585875125054
631.64675493276002,0.0015749131147606236
631.67474171981326,0.0021468572810060781
631.70272850686661,0.002712256748329481
631.73071529391984,0.0032701399075658428
631.75870208097308,0.0038195351495570466
631.78668886802632,0.0043594708651426969
631.81467565507967,0.0048889754451645045
631.84266244213291,0.0054070772804577592
631.87064922918614,0.0059128047618642156
631.89863601623938,0.0064051862802234766
631.92662280329273,0.0068832502263770331
631.95460959034597,0.0073460249911605994
631.9825963773992,0.007792538965415723
632.01058316445244,0.0082218205399820152
632.03856995150579,0.0086328981057006739
632.06655673855903,0.009024800053407965
632.09454352561227,0.0093965547739451784
632.1225303126655,0.009747190658151909
632.15051709971885,0.010075736096869025
632.17850388677209,0.010381219480933459
632.20649067382533,0.010662669201186175
632.23447746087857,0.010919113648466761
632.2624642479318,0.011149581213614814
632.29045103498515,0.011353100287470689
632.31843782203839,0.01152869926087232
632.34642460909163,0.01167540652466019
632.37441139614486,0.011792250469673868
632.40239818319822,0.011878259486753251
632.43038497025145,0.011932461966737213
632.45837175730469,0.011953886300465767
632.48635854435793,0.011941560878778502
632.51434533141128,0.011894514161618963
632.54233211846451,0.0118120723779934
632.57031890551775,0.011694541312705834
632.59830569257099,0.011542427881097307
632.62629247962434,0.011356238998508052
632.65427926667758,0.011136481580280622
632.68226605373081,0.010883662541755384
632.71025284078405,0.010598288798273368
632.7382396278374,0.010280867265174291
632.76622641489064,0.0099319048578017516
632.79421320194388,0.009551908491495599
632.82219998899711,0.0091413850815968596
632.85018677605046,0.0087008415434447414
632.8781735631037,0.0082307847923838683
632.90616035015694,0.0077317217437535557
632.93414713721018,0.0072041593128948601
632.96213392426341,0.0066486044151488136
632.99012071131676,0.0060655639658540499
633.01810749837,0.0054555448803563474
633.04609428542324,0.0048190540739944422
633.07408107247647,0.0041565984621093847
633.10206785952983,0.0034686849600393697
633.13005464658306,0.0027558204831310404
633.1580414336363,0.0020185119467226991
633.18602822068954,0.0012572662661553859
633.21401500774289,0.00047259035676692259
633.24200179479612,-0.00033500886609527658
633.26998858184936,-0.0011650244870933012
633.2979753689026,-0.0020169495908861036
633.32596215595595,-0.0028902772621362243
633.35394894300919,-0.0037845005854955293
633.38193573006242,-0.0046991126456264734
633.40992251711566,-0.0056336065271880009
633.43790930416901,-0.0065874753148429891
633.46589609122225,-0.0075602120932426378
633.49388287827549,-0.0085513099470497372
633.52186966532872,-0.0095602611307979701
633.54985645238207,-0.010584881461287592
633.57784323943531,-0.011617794225915232
633.60583002648855,-0.012650620424404038
633.63381681354178,-0.01367498105647302
633.66180360059502,-0.014682497121841182
633.68979038764837,-0.015664789620231469
633.71777717470161,-0.016613479551354886
633.74576396175485,-0.017520187914934482
633.77375074880808,-0.018376535710689271
633.80173753586143,-0.019174143938341378
633.82972432291467,-0.019904633597603291
633.85771110996791,-0.020559625688197393
633.88569789702115,-0.0211307412098427
633.9136846840745,-0.021609601162259965
633.94167147112773,-0.021987826545164263
633.96965825818097,-0.022257038358276776
633.99764504523421,-0.022408857601316494
634.02563183228756,-0.02243490527400226
634.0536186193408,-0.022326802376052845
634.08160540639403,-0.022076169907187651
634.10959219344727,-0.021674628867125657
634.13757898050062,-0.021113800255583275
634.16556576755386,-0.020385305072284057
634.19355255460709,-0.019480764316945037
634.22153934166033,-0.018391798989285238
634.24952612871368,-0.017110030089018062
634.27751291576692,-0.015627078615872904
634.30549970282016,-0.013934565569563965
634.33348648987339,-0.012024111949810252
634.36147327692663,-0.0098873387563307852
634.38946006397998,-0.0075158669888344271
634.41744685103322,-0.004901317647059456
634.44543363808646,-0.002035311730715729
634.47342042513969,0.0010905297604777726
634.50140721219304,0.0044845858268163473
634.52939399924628,0.0081508153630793431
634.55738078629952,0.012054449465112586
634.58536757335276,0.016140669276947336
634.61335436040611,0.02035448695223593
634.64134114745934,0.024640914644579019
634.66932793451258,0.028944964507628602
634.69731472156582,0.033211648695019698
634.72530150861917,0.03738597936040404
634.75328829567241,0.041412968657382657
634.78127508272564,0.045237628739607766
634.80926186977888,0.048804971760714397
634.83724865683223,0.052060009874350152
634.86523544388547,0.054947755234123478
634.8932222309387,0.05741321999368329
634.92120901799194,0.059401416306664678
634.94919580504529,0.060857356326707503
634.97718259209853,0.061726052207434719
635.00516937915177,0.061952516102488489
635.033156166205,0.06148176016550385
635.06114295325824,0.060258796550115894
635.08912974031159,0.058228637409949678
635.11711652736483,0.055336294898656588
635.14510331441807,0.051526781169865137
635.1730901014713,0.046745108377210347
635.20107688852465,0.040936288674301539
635.22906367557789,0.034080408858894407
635.25705046263113,0.026452475277338294
635.28503724968436,0.01847506435298623
635.31302403673772,0.01057184992461974
635.34101082379095,0.0031665058311173464
635.36899761084419,-0.0033172940887406205
635.39698439789743,-0.0084567616865743045
635.42497118495078,-0.01202050385148264
635.45295797200401,-0.014205950987691073
635.48094475905725,-0.015268835488532761
635.50893154611049,-0.015464889747323244
635.53691833316384,-0.015049846157375486
635.56490512021708,-0.014279437112009258
635.59289190727031,-0.013409395004539488
635.62087869432355,-0.012690774521955342
635.6488654813769,-0.012240502669861522
635.67685226843014,-0.012024732655769697
635.70483905548338,-0.012001596467394791
635.73282584253661,-0.012129226092454103
635.76081262958996,-0.012365753518666044
635.7887994166432,-0.012669310733745843
635.81678620369644,-0.012998094364272817
635.84477299074968,-0.013321157820261364
635.87275977780291,-0.013634441595743646
635.90074656485626,-0.013938042080271501
635.9287333519095,-0.014232055663393084
635.95672013896274,-0.014516578734660264
635.98470692601597,-0.014791707683623661
636.01269371306932,-0.015057538899834962
636.04068050012256,-0.01531416877284263
636.0686672871758,-0.015561693692198373
636.09665407422904,-0.015800210047452825
636.12464086128239,-0.01602981422815751
636.15262764833562,-0.016250602623861188
636.18061443538886,-0.016462671624115435
636.2086012224421,-0.016666117618470856
636.23658800949545,-0.016861036996478864
636.26457479654869,-0.017047526147688494
636.29256158360192,-0.017225681461651165
636.32054837065516,-0.017395599327917503
636.34853515770851,-0.017557376136038774
636.37652194476175,-0.017711108275564279
636.40450873181499,-0.017856892136045306
636.43249551886822,-0.017994824107032494
636.46048230592157,-0.018125000578076957
636.48846909297481,-0.018247517938728267
636.51645588002805,-0.018362472578537594
636.54444266708128,-0.018469960887055551
636.57242945413452,-0.01857007925383276
636.60041624118787,-0.018662924068420211
636.62840302824111,-0.018748591720367754
636.65638981529435,-0.018827178599226415
636.68437660234758,-0.018898781094546808
636.71236338940093,-0.018963495595879815
636.74035017645417,-0.019021418492775513
636.76833696350741,-0.019072646174784817
636.79632375056065,-0.019117275031458332
636.824310537614,-0.019155401452346829
636.85229732466723,-0.019187121827000622
636.88028411172047,-0.01921253254497049
636.90827089877371,-0.019231729995807061
636.93625768582706,-0.019244810569060987
636.9642444728803,-0.019251870654282795
636.99223125993353,-0.019253006641023168
637.02021804698677,-0.019248314918832721
637.04820483404012,-0.019237891877262023
637.07619162109336,-0.019221833905861775
637.10417840814659,-0.019200237394182577
637.13216519519983,-0.019173198731775046
637.16015198225318,-0.019140814308189657
637.18813876930642,-0.019103180512977297
637.21612555635966,-0.019060393735688456
637.24411234341289,-0.019012550365873772
637.27209913046613,-0.018959746793083852
637.30008591751948,-0.018902079406869079
637.32807270457272,-0.018839644596780537
637.35605949162596,-0.018772538752368628
637.38404627867919,-0.018700858263183968
637.41203306573254,-0.018624699518776863
637.44001985278578,-0.018544158908698552
637.46800663983902,-0.018459332822499348
637.49599342689226,-0.018370317649729885
637.52398021394561,-0.018277449767308347
637.55196700099884,-0.018182924330484518
637.57995378805208,-0.018089804119088029
637.60794057510532,-0.018001156802055173
637.63592736215867,-0.017920050048321923
637.66391414921191,-0.017849551526825227
637.69190093626514,-0.017792728906501024
637.71988772331838,-0.017752649856285604
637.74787451037173,-0.017732382045115194
637.77586129742497,-0.017734993141926267
637.8038480844782,-0.017763550815654991
637.83183487153144,-0.017821122735237623
637.85982165858479,-0.017910776569610889
637.88780844563803,-0.018035579987710382
637.91579523269127,-0.018198600658472647
637.9437820197445,-0.018402906250833975
637.97176880679774,-0.018651564433730668
637.99975559385109,-0.01894764287610029
638.02774238090433,-0.019294209246876755
638.05572916795757,-0.019694331214997425
638.0837159550108,-0.020151076449398599
638.11170274206415,-0.020667512619018766
638.13968952911739,-0.021246707392790061
638.16767631617063,-0.02189172843965069
638.19566310322386,-0.022605643428536992
638.22364989027722,-0.023391520028388554
638.25163667733045,-0.024252425908135283
638.27962346438369,-0.025191428736716537
638.30761025143693,-0.026211596183068564
638.33559703849028,-0.027315995916132346
638.36358382554351,-0.028507695604835195
638.39157061259675,-0.029789762918117677
638.41955739964999,-0.031157562355504625
638.44754418670334,-0.032470952457506141
638.47553097375658,-0.033474047128205009
638.50351776080981,-0.033907240176417622
638.53150454786305,-0.033510925410954767
638.5594913349164,-0.032025496640618573
638.58747812196964,-0.029191347674231038
638.61546490902288,-0.025097007366989416
638.64345169607611,-0.021454770965249725
638.67143848312935,-0.020449969741956425
638.6994252701827,-0.024267890174089035
638.72741205723594,-0.034088041536315616
638.75539884428918,-0.047609752566707075
638.78338563134241,-0.061780144187335906
638.81137241839576,-0.073688007314043069
638.839359205449,-0.082546960441670425
638.86734599250224,-0.089208892236180226
638.89533277955547,-0.094590119659005212
638.92331956660882,-0.10017031775794372
638.95130635366206,-0.10668893329040352
638.9792931407153,-0.11398718863968849
639.00727992776854,-0.12189375920377354
639.03526671482189,-0.13023732038066793
639.06325350187512,-0.13884654756827819
639.09124028892836,-0.14755011616461211
639.1192270759816,-0.15617670156764407
639.14721386303495,-0.16455497917538287
639.17520065008819,-0.17251362438573425
639.20318743714142,-0.17988131259670759
639.23117422419466,-0.18648671920627802
639.25916101124801,-0.19215851961244035
639.28714779830125,-0.19672538922057392
639.31513458535449,-0.20033859102815843
639.34312137240772,-0.20232533545936437
639.37110815946107,-0.19829287737073775
639.39909494651431,-0.18340783084834067
639.42708173356755,-0.15295143323019156
639.45506852062078,-0.10793456939286905
639.48305530767402,-0.05764535817552785
639.51104209472737,-0.012006341170142321
639.53902888178061,0.021893161550009976
639.56701566883385,0.043499450113362093
639.59500245588708,0.053177336944979281
639.62298924294043,0.051507903052202764
639.65097602999367,0.041068269982528216
639.67896281704691,0.025513581743187519
639.70694960410015,0.0085095064608204929
639.7349363911535,-0.0062782877379847779
639.76292317820673,-0.01518413272645458
639.79090996525997,-0.014544272242259737
639.81889675231321,-0.0027681525788842976
639.84688353936656,0.018481116961076349
639.8748703264198,0.048794378738925115
639.90285711347303,0.087790424366571695
639.93084390052627,0.13032722807446318
639.95883068757962,0.16036914764260368
639.98681747463286,0.1603635293971295
640.01480426168609,0.11297895424190996
640.04279104873933,0.021387279770219259
640.07077783579268,-0.074410251137740246
640.09876462284592,-0.13057935163101808
640.12675140989916,-0.11464031707458355
640.15473819695239,-0.04503462412121273
640.18272498400563,0.027416455161885622
640.21071177105898,0.051330127662883474
640.23869855811222,0.0080354230300554441
640.26668534516546,-0.07452560400125563
640.29467213221869,-0.16334441494147622
640.32265891927204,-0.22839099571941635
640.35064570632528,-0.26764546052531157
640.37863249337852,-0.29444483485222728
640.40661928043176,-0.32228377557392607
640.43460606748511,-0.36285428277018772
640.46259285453834,-0.414981891447185
640.49057964159158,-0.4718968907219625
640.51856642864482,-0.52241292662225103
640.54655321569817,-0.55229792071947426
640.57454000275141,-0.56126312137226897
640.60252678980464,-0.55038667582771472
640.63051357685788,-0.52272931674516876
640.65850036391123,-0.48619082148693771
640.68648715096447,-0.44939539545356366
640.7144739380177,-0.41854094840911626
640.74246072507094,-0.38975660553144342
640.77044751212429,-0.35656001550577798
640.79843429917753,-0.31246970463465651
640.82642108623077,-0.25440841774350353
640.854407873284,-0.19041105761522914
640.88239466033724,-0.13077617847146117
640.91038144739059,-0.085129910480568949
640.93836823444383,-0.053116877805364116
640.96635502149707,-0.026738607702728512
640.9943418085503,0.0021976437918560521
641.02232859560365,0.041037421798465257
641.05031538265689,0.087754470696556286
641.07830216971013,0.13449521323727742
641.10628895676336,0.17334149701470869
641.13427574381672,0.20057493624001443
641.16226253086995,0.22152005998994584
641.19024931792319,0.24267575029836008
641.21823610497643,0.26865099740327381
641.24622289202978,0.29711479265806284
641.27420967908301,0.32414351584123269
641.30219646613625,0.34581456478064432
641.33018325318949,0.35941111156549654
641.35817004024284,0.36575486191311724
641.38615682729608,0.36631330301822684
641.41414361434931,0.36255392207563286
641.44213040140255,0.35594420628010059
641.4701171884559,0.34795164282636515
641.49810397550914,0.34001379538086995
641.52609076256238,0.33265488833892265
641.55407754961561,0.32528941157156499
641.58206433666896,0.31725337261375408
641.6100511237222,0.30788277899123973
641.63803791077544,0.29651363822968024
641.66602469782868,0.28248195785476327
641.69401148488191,0.26512374539217465
641.72199827193526,0.24385789002037139
641.7499850589885,0.21937996526465176
641.77797184604174,0.19338736319690808
641.80595863309497,0.16760436941819945
641.83394542014832,0.14375526952949613
641.86193220720156,0.12356434913205439
641.8899189942548,0.10875589382683248
641.91790578130804,0.10077038008193062
641.94589256836139,0.099332198649511483
641.97387935541462,0.10334161370226136
642.00186614246786,0.11167848137755598
642.0298529295211,0.12322265781279063
642.05783971657445,0.13685399914541652
642.08582650362769,0.15145236151271391
642.11381329068092,0.16589760105212958
642.14180007773416,0.17906957390105793
642.16978686478751,0.18984813619693064
642.19777365184075,0.19711314407705038
642.22576043889399,0.19995078056172932
642.25374722594722,0.19864969708200975
642.28173401300046,0.19393296887364886
642.30972080005381,0.18652426206364692
642.33770758710705,0.17714724277910188
642.36569437416028,0.16652557714702265
642.39368116121352,0.15538226395475907
642.42166794826687,0.14430540994626351
642.44965473532011,0.1335323284354395
642.47764152237335,0.12319683883313681
642.50562830942658,0.11342944810826094
642.53361509647993,0.10436066322967652
642.56160188353317,0.096120991166360525
642.58958867058641,0.08884093888717759
642.61757545763965,0.082648429577144134
642.645562244693,0.077516511940241895
642.67354903174623,0.073178266911407386
642.70153581879947,0.069346143280738293
642.72952260585271,0.065732589838355837
642.75750939290606,0.062050055374364588
642.7854961799593,0.058010988678915298
642.81348296701253,0.053216771442187172
642.84146975406577,0.045929053949683274
642.86945654111912,0.033521504227255416
642.89744332817236,0.013351891351286227
642.92543011522559,-0.016518615990181118
642.95341690227883,-0.051195020977952144
642.98140368933218,-0.081937336237827729
643.00939047638542,-0.099995436500311508
643.03737726343866,-0.10127970673038944
643.06536405049189,-0.091151158798511656
643.09335083754513,-0.076114444024232508
643.12133762459848,-0.061477658259108559
643.14932441165172,-0.04825145897285732
643.17731119870496,-0.036482088453509753
643.20529798575819,-0.026215788989157662
643.23328477281154,-0.017498802867861762
643.26127155986478,-0.010377372377784688
643.28925834691802,-0.0048977398069804945
643.31724513397126,-0.0010776534909526791
643.34523192102461,0.0012219491832692331
643.37321870807784,0.0021937871491415351
643.40120549513108,0.0020306263442990691
643.42919228218432,0.00092523270636224453
643.45717906923767,-0.00092962782705696689
643.48516585629091,-0.0033411893183212804
643.51315264334414,-0.0061182659516352267
643.54113943039738,-0.0091130936230443549
643.56912621745073,-0.012225669783304527
643.59711300450397,-0.015358442443424991
643.6250997915572,-0.018413859614449857
643.65308657861044,-0.021294369307412575
643.68107336566379,-0.023902419533355701
643.70906015271703,-0.026141182504303639
643.73704693977027,-0.027963594635507905
643.7650337268235,-0.029403593472264289
643.79302051387674,-0.030502556772214362
