energy,intensity
445.99906773653208,-0.258917331808451
446.01831437545991,-0.25535913180991698
446.03756101438779,-0.251851413543772
446.05680765331562,-0.24839363651902852
446.07605429224344,-0.24498526024466818
446.09530093117127,-0.24162574422968272
446.11454757009915,-0.23831454798305449
446.13379420902697,-0.23505113101379485
446.1530408479548,-0.2318349528308859
446.17228748688262,-0.22866547294331951
446.19153412581051,-0.22554215086007848
446.21078076473833,-0.22246444609017313
446.23002740366616,-0.21943181814258605
446.24927404259398,-0.21644372652630919
446.26852068152186,-0.21349963075032583
446.28776732044969,-0.21059899032364518
446.30701395937751,-0.20774126475525051
446.32626059830534,-0.20492591355413362
446.34550723723322,-0.20215239622927836
446.36475387616105,-0.19942017228969294
446.38400051508887,-0.19672870124436106
446.4032471540167,-0.19407744260227461
446.42249379294458,-0.19146585587241791
446.4417404318724,-0.18889340056379814
446.46098707080023,-0.18635953618539955
446.48023370972805,-0.183863722246214
446.49948034865594,-0.18140541825522624
446.51872698758376,-0.17898408372144264
446.53797362651159,-0.17659917815384776
446.55722026543941,-0.17425016106143362
446.57646690436729,-0.17193649195318525
446.59571354329512,-0.16965763033810824
446.61496018222294,-0.1674130357251877
446.63420682115077,-0.16520216762341527
446.65345346007865,-0.16302448554177681
446.67270009900648,-0.16087944898927686
446.6919467379343,-0.15876651747490092
446.71119337686213,-0.1566851505076409
446.73044001579001,-0.15463480759648268
446.74968665471783,-0.15261494825043023
446.76893329364566,-0.15062503197846944
446.78817993257348,-0.14866451828959221
446.80742657150137,-0.14673286669278471
446.82667321042919,-0.14482953669705029
446.84591984935702,-0.14295398781137506
446.86516648828484,-0.14110567954475103
446.88441312721272,-0.13928407140616469
446.90365976614055,-0.13748862290461875
446.92290640506837,-0.13571879354909963
446.9421530439962,-0.13397404284859926
446.96139968292408,-0.13225383031210455
446.98064632185191,-0.13055761544861752
446.99989296077973,-0.12888485776712491
447.01913959970756,-0.12723501677661872
447.03838623863544,-0.12560755198608606
447.05763287756326,-0.12400192290452838
447.07687951649109,-0.12241758904093281
447.09612615541892,-0.12085400990429124
447.1153727943468,-0.11931064500359102
447.13461943327462,-0.11778695384783322
447.15386607220245,-0.11628239594600513
447.17311271113027,-0.11479643080709863
447.19235935005815,-0.11332851794010135
447.21160598898598,-0.11187811685401383
447.23085262791381,-0.11044468705782368
447.25009926684163,-0.10902768806052271
447.26934590576951,-0.10762657937109882
447.28859254469734,-0.10624082049855206
447.30783918362516,-0.10486987095187028
447.32708582255304,-0.10351319024004138
447.34633246148087,-0.10217023787206525
447.3655791004087,-0.10084047335692975
447.38482573933652,-0.099523356203626831
447.4040723782644,-0.098218345921144548
447.42331901719223,-0.096924902018482473
447.44256565612005,-0.095642484004628686
447.46181229504788,-0.094370551388575113
447.48105893397576,-0.093108563679309891
447.50030557290359,-0.091855980385832384
447.51955221183141,-0.090612261017130769
447.53879885075924,-0.089376865082196957
447.55804548968712,-0.088149252090019212
447.57729212861494,-0.086928881549596743
447.59653876754277,-0.085715212969917756
447.61578540647059,-0.084507705859974191
447.63503204539848,-0.083305819728754421
447.6542786843263,-0.08210901408525742
447.67352532325413,-0.080916748438471547
447.69277196218195,-0.079728482297388673
447.71201860110983,-0.078543675170997279
447.73126524003766,-0.077361786568296231
447.75051187896548,-0.076182275998273916
447.76975851789331,-0.075004602969922229
447.78900515682119,-0.073828226992229642
447.80825179574902,-0.072652607574195005
447.82749843467684,-0.071477204224806717
447.84674507360467,-0.070301476453056677
447.86599171253255,-0.069124883767933354
447.88523835146037,-0.06794688567843557
447.9044849903882,-0.066766941693551796
447.92373162931602,-0.065584511322273872
447.94297826824391,-0.064399054073590242
447.96222490717173,-0.063210029456499783
447.98147154609956,-0.062016896979990951
448.00071818502738,-0.060819116275662055
448.01996482395526,-0.059616344954438349
448.03921146288309,-0.058408840919225623
448.05845810181091,-0.057196975418135378
448.07770474073874,-0.055981119699282628
448.09695137966662,-0.054761645010778869
448.11619801859445,-0.053538922600746282
448.13544465752227,-0.052313323717296363
448.1546912964501,-0.051085219608544126
448.17393793537798,-0.04985498152260099
448.1931845743058,-0.048622980707589268
448.21243121323363,-0.047389588411620366
448.23167785216145,-0.046155175882809339
448.25092449108934,-0.044920114369267572
448.27017113001716,-0.043684775119117419
448.28941776894499,-0.042449529380470245
448.30866440787281,-0.041214748401441133
448.32791104680069,-0.039980803430141439
448.34715768572852,-0.038748065714693559
448.36640432465634,-0.037516906503208824
448.38565096358417,-0.036287697043802324
448.40489760251205,-0.035060808584585448
448.42414424143988,-0.033836612373680519
448.4433908803677,-0.032615479659198941
448.46263751929553,-0.031397781689255735
448.48188415822341,-0.030183889711962408
448.50113079715123,-0.028974174975441132
448.52037743607906,-0.027769008727803395
448.53962407500694,-0.026568762217160674
448.55887071393477,-0.025373806691635137
448.57811735286259,-0.024184513399338248
448.59736399179042,-0.023001253588385048
448.6166106307183,-0.021824398506887131
448.63585726964612,-0.02065431940296648
448.65510390857395,-0.019491387524734671
448.67435054750177,-0.018335974120306728
448.69359718642966,-0.017188450437794319
448.71284382535748,-0.016049187725319283
448.73209046428531,-0.01491855723099325
448.75133710321313,-0.013796930202931259
448.77058374214101,-0.012684677889245096
448.78983038106884,-0.01158217153805636
448.80907701999666,-0.010489782397476808
448.82832365892449,-0.0094078817156214786
448.84757029785237,-0.0083368407406022756
448.8668169367802,-0.0072770307205405529
448.88606357570802,-0.0062288229035481913
448.90531021463585,-0.0051925885377402219
448.92455685356373,-0.0041686988712286918
448.94380349249155,-0.0031575251521346859
448.96305013141938,-0.002159438628570212
448.9822967703472,-0.0011748105486503149
449.00154340927509,-0.00020401216048718295
449.02079004820291,0.00075258528779840496
449.04003668713074,0.0016946105480942801
449.05928332605856,0.002621692372285417
449.07852996498644,0.0035334595122594242
449.09777660391427,0.004429540719895886
449.11702324284209,0.0053095647470824698
449.13626988176992,0.0061731603457041298
449.1555165206978,0.007019956267648295
449.17476315962563,0.0078495812647949338
449.19400979855345,0.0086616640890315125
449.21325643748128,0.0094558334922429967
449.23250307640916,0.010231718226316605
449.25174971533698,0.010988947043132708
449.27099635426481,0.011727148694578584
449.29024299319263,0.012445951932539185
449.30948963212052,0.013144985508901509
449.32873627104834,0.013823878175546379
449.34798290997617,0.014482258684360847
449.36722954890399,0.015119755787229867
449.38647618783187,0.015735998236040188
449.4057228267597,0.016330614782673121
449.42496946568752,0.016903234179015472
449.44421610461535,0.017453485176952208
449.46346274354323,0.017980996528369802
449.48270938247106,0.018485396985150088
449.50195602139888,0.018966315525079117
449.52120266032671,0.0194236512070779
449.54044929925459,0.019858096516770413
449.55969593818241,0.020270488898795652
449.57894257711024,0.020661665797796498
449.59818921603807,0.021032464658414497
449.61743585496595,0.021383722925292226
449.63668249389377,0.021716278043069154
449.6559291328216,0.022030967456387923
449.67517577174942,0.022328628609890086
449.6944224106773,0.02261009894821801
449.71366904960513,0.022876215916011577
449.73291568853296,0.02312781695791322
449.75216232746078,0.02336573951856449
449.77140896638866,0.023590821042607589
449.79065560531649,0.023803898974682752
449.80990224424431,0.024005810759432214
449.82914888317214,0.024197393841497539
449.84839552210002,0.024379485665520808
449.86764216102785,0.024552923676142504
449.88688879995567,0.024718545318004739
449.90613543888355,0.024877188035749523
449.92538207781138,0.025029689274017487
449.9446287167392,0.025176886477450665
449.96387535566703,0.025319617090690607
449.98312199459491,0.025458718558379296
450.00236863352274,0.025595028325157455
450.02161527245056,0.025729383835667058
450.04086191137839,0.025862622534549674
450.06010855030627,0.025995581866447234
450.07935518923409,0.026129099276000531
450.09860182816192,0.026264012207851514
450.11784846708974,0.026401158106641735
450.13709510601763,0.02654137441701318
450.15634174494545,0.026685498583606564
450.17558838387328,0.026834368051063866
450.1948350228011,0.026988820264026644
450.21408166172898,0.027149692667136939
450.23332830065681,0.027317822705035362
450.25257493958463,0.027494047822363931
450.27182157851246,0.02767920546376422
450.29106821744034,0.027874133073878357
450.31031485636817,0.028079594750190059
450.32956149529599,0.028295266993836547
450.34880813422382,0.028519994103943895
450.3680547731517,0.028752599261147881
450.38730141207952,0.028991905646082252
450.40654805100735,0.029236736439382776
450.42579468993517,0.029485914821684559
450.44504132886306,0.029738263973623443
450.46428796779088,0.029992607075833053
450.48353460671871,0.030247767308949219
450.50278124564653,0.030502567853607044
450.52202788457441,0.03075583189044237
450.54127452350224,0.031006382600088821
450.56052116243006,0.03125304316318224
450.57976780135789,0.031494636760357707
450.59901444028577,0.031729986572251033
450.6182610792136,0.03195791577949593
450.63750771814142,0.032177247562728183
450.65675435706925,0.032386805102582905
450.67600099599713,0.032585411579695772
450.69524763492495,0.032771890174700703
450.71449427385278,0.032945064068233415
450.7337409127806,0.033103756440929
450.75298755170849,0.033246790473422952
450.77223419063631,0.033372989346349531
450.79148082956414,0.033481176240344294
450.81072746849196,0.033570174336042341
450.82997410741984,0.033638806814078923
450.84922074634767,0.033685896855088757
450.86846738527549,0.033710267639707178
450.88771402420332,0.033710742348569279
450.9069606631312,0.033686144162310055
450.92620730205903,0.033635296261564744
450.94545394098685,0.033557021826968424
450.96470057991468,0.033450144039156193
450.98394721884256,0.033313486078762687
451.00319385777038,0.033145871126423844
451.02244049669821,0.032947834999584598
451.04168713562603,0.03272750309812681
451.06093377455392,0.032495102482524491
451.08018041348174,0.032260860288792881
451.09942705240957,0.032035003652945163
451.11867369133745,0.031827759710994594
451.13792033026527,0.031649355598956298
451.1571669691931,0.031510018452843458
451.17641360812092,0.031419975408669927
451.19566024704881,0.031389453602449567
451.21490688597663,0.031426088473890446
451.23415352490446,0.031516290740813739
451.25340016383228,0.031636082893932001
451.27264680276016,0.031761416451554586
451.29189344168799,0.031868242931989699
451.31114008061581,0.031932513853546708
451.33038671954364,0.031930180734534588
451.34963335847152,0.031837203084271959
451.36887999739935,0.031686279783754157
451.38812663632717,0.031702718832284017
451.407373275255,0.032152660115517775
451.42661991418288,0.03330224351911637
451.4458665531107,0.035417608928729909
451.46511319203853,0.038764896230016867
451.48435983096635,0.043610245308633472
451.50360646989424,0.050219796050258357
451.52285310882206,0.058859688340509364
451.54209974774989,0.069796062065059561
451.56134638667771,0.082989726394162286
451.58059302560559,0.093857593511581711
451.59983966453342,0.094335115288797969
451.61908630346124,0.080270867899816897
451.63833294238907,0.059093454214216148
451.65757958131695,0.040313793402189907
451.67682622024478,0.031176903515871848
451.6960728591726,0.029330973099688872
451.71531949810043,0.029978641872049544
451.73456613702831,0.030631412000244867
451.75381277595613,0.031184541749200875
451.77305941488396,0.031642984479769182
451.79230605381179,0.032011693552799342
451.81155269273967,0.032295622329141634
451.83079933166749,0.032499724169643911
451.85004597059532,0.032628952435156712
451.86929260952314,0.032688260486529584
451.88853924845102,0.032682601684611963
451.90778588737885,0.03261692939025345
451.92703252630668,0.03249619696430367
451.9462791652345,0.03232535776761216
451.96552580416238,0.032109365161027789
451.98477244309021,0.03185317250540138
452.00401908201803,0.03156173316158193
452.02326572094586,0.031240000490418959
452.04251235987374,0.030892927852760987
452.06175899880157,0.030525021399511881
452.08100563772939,0.030138555411284025
452.10025227665722,0.029735109309983986
452.1194989155851,0.029316262293966767
452.13874555451292,0.028883593561591064
452.15799219344075,0.028438682311211928
452.17723883236857,0.027983107741185603
452.19648547129646,0.027518449049866937
452.21573211022428,0.027046285435614943
452.23497874915211,0.026568196096784503
452.25422538807993,0.026085760231731842
452.27347202700781,0.025600557038811797
452.29271866593564,0.025114165716383457
452.31196530486346,0.024628165462801659
452.33121194379135,0.024144135476421226
452.35045858271917,0.023663654955601236
452.369705221647,0.023188303098696541
452.38895186057482,0.022719659104063365
452.4081984995027,0.022259036809746169
452.42744513843053,0.021806529321202226
452.44669177735835,0.021361878937206341
452.46593841628618,0.020924827925654133
452.48518505521406,0.020495118554439917
452.50443169414189,0.020072493091461838
452.52367833306971,0.019656693804614211
452.54292497199754,0.019247462961792621
452.56217161092542,0.0188445428308915
452.58141824985324,0.018447675679808817
452.60066488878107,0.01805660377643897
452.61991152770889,0.017671069388677539
452.63915816663678,0.017290814784419024
452.6584048055646,0.016915582231561262
452.67765144449243,0.016545113997998719
452.69689808342025,0.01617915235162698
452.71614472234813,0.015817439560340586
452.73539136127596,0.01545971789203727
452.75463800020378,0.015105729614611558
452.77388463913161,0.014755216995959039
452.79313127805949,0.014407922303974287
452.81237791698732,0.014063587806554955
452.83162455591514,0.013721955771595608
452.85087119484297,0.013382768466991832
452.87011783377085,0.013045768160638243
452.88936447269867,0.012710697120432417
452.9086111116265,0.012377297614268959
452.92785775055432,0.012045311910043459
452.94710438948221,0.011714482275650542
452.96635102841003,0.011384550978987756
452.98559766733786,0.011055260287949719
453.00484430626568,0.010726352470432025
453.02409094519356,0.010397569794329299
453.04333758412139,0.01006865452753908
453.06258422304921,0.0097393489379559942
453.08183086197704,0.0094093952934756354
453.10107750090492,0.0090785358619926166
453.12032413983275,0.008746512911404495
453.13957077876057,0.008413068709605882
453.1588174176884,0.0080779455244923866
453.17806405661628,0.007740885623958596
453.1973106955441,0.0074016312759020994
453.21655733447193,0.007059924748217497
453.23580397339975,0.0067155083088003874
453.25505061232764,0.006368124225545343
453.27429725125546,0.0060175147663499963
453.29354389018329,0.0056634221991089338
453.31279052911111,0.0053055887917177452
453.33203716803899,0.0049437568120709562
453.35128380696682,0.0045776685280662964
453.37053044589464,0.0042070662075983003
453.38977708482247,0.0038316921185625602
453.40902372375035,0.0034512885288535472
453.42827036267818,0.0030655977063690993
453.447517001606,0.0026743619190036962
453.46676364053383,0.0022773234346529373
453.48601027946171,0.0018742245212112147
453.50525691838953,0.0014648074465765104
453.52450355731736,0.0010488144786432313
453.54375019624518,0.00062598788530697936
453.56299683517307,0.00019606993446206599
453.58224347410089,-0.00024119710599336715
453.60149011302872,-0.00068607096816499392
453.62073675195654,-0.0011388093841572097
453.63998339088442,-0.001599670086075795
453.65923002981225,-0.0020689108060224348
453.67847666874007,-0.0025467892761028756
453.69772330766796,-0.0030335632284229789
453.71696994659578,-0.0035294903950842706
453.73621658552361,-0.0040348285081925799
453.75546322445143,-0.00454983529985231
453.77470986337931,-0.0050747685021694296
453.79395650230714,-0.0056098858472452455
453.81320314123496,-0.006155424477690602
453.83244978016279,-0.0067112803225880882
453.85169641909067,-0.0072770685944955546
453.8709430580185,-0.0078523961605200653
453.89018969694632,-0.008436869887773691
453.90943633587415,-0.0090300966433668542
453.92868297480203,-0.0096316832944117591
453.94792961372985,-0.010241236708015257
453.96717625265768,-0.010858363751289535
453.98642289158551,-0.011482671291345009
454.00566953051339,-0.012113766195293963
454.02491616944121,-0.012751255330243089
454.04416280836904,-0.013394745563304659
454.06340944729686,-0.014043843761589073
454.08265608622474,-0.014698156792208711
454.10190272515257,-0.015357291522270097
454.1211493640804,-0.016020854818885582
454.14039600300822,-0.016688453549165583
454.1596426419361,-0.017359694580222507
454.17888928086393,-0.018034184779162792
454.19813591979175,-0.018711531013098838
454.21738255871958,-0.019391340149141057
454.23662919764746,-0.020073219054401886
454.25587583657529,-0.020756774595987706
454.27512247550311,-0.021441613641010944
454.29436911443094,-0.022127343056582018
454.31361575335882,-0.022813569709813367
454.33286239228664,-0.023499900467811353
454.35210903121447,-0.024185942197688427
454.37135567014229,-0.024871301766554985
454.39060230907018,-0.025555586041523484
454.409848947998,-0.026238401889700266
454.42909558692583,-0.026919356178197806
454.44834222585365,-0.027598055774126499
454.46758886478153,-0.028274107544598748
454.48683550370936,-0.028947118356720987
454.50608214263718,-0.029616695077605618
454.52532878156501,-0.03028244457436307
454.54457542049289,-0.030943973714105694
454.56382205942072,-0.031600889363940003
454.58306869834854,-0.032252798390978381
454.60231533727637,-0.032899307662331227
454.62156197620425,-0.03354002404511084
454.64080861513207,-0.034174554406423877
454.6600552540599,-0.034802505613382613
454.67930189298772,-0.035423484533097502
454.69854853191561,-0.03603709803268073
454.71779517084343,-0.036642952979239106
454.73704180977126,-0.037240656239884852
454.75628844869908,-0.037829814681728413
454.77553508762696,-0.038410035171881865
454.79478172655479,-0.038980924577452225
454.81402836548261,-0.039542089765551625
454.83327500441044,-0.040093137603290474
454.85252164333832,-0.04063367495778078
454.87176828226615,-0.041163308696129761
454.89101492119397,-0.041681645685449437
454.91026156012185,-0.04218829279285171
454.92950819904968,-0.042682856885444001
454.9487548379775,-0.043164944830338239
454.96800147690533,-0.043634163494644829
454.98724811583321,-0.044090119745475526
455.00649475476104,-0.044532420449938048
455.02574139368886,-0.044960672475144167
455.04498803261669,-0.045374482688204314
455.06423467154457,-0.045773457956230057
455.08348131047239,-0.046157205146329441
455.10272794940022,-0.046525331125614099
455.12197458832804,-0.046877442761194432
455.14122122725593,-0.047213146920181824
455.16046786618375,-0.047532050469684714
455.17971450511158,-0.047833760276814533
455.1989611440394,-0.048117883208681697
455.21820778296728,-0.048384073061898548
455.23745442189511,-0.048632403194221858
455.25670106082293,-0.048863167790233628
455.27594769975076,-0.049076663007659144
455.29519433867864,-0.049273185004224285
455.31444097760647,-0.049453029937653194
455.33368761653429,-0.04961649396567179
455.35293425546212,-0.049763873246005376
455.37218089439,-0.049895463936379642
455.39142753331782,-0.050011562194519119
455.41067417224565,-0.050112464178149546
455.42992081117347,-0.050198466044996205
455.44916745010136,-0.050269863952784599
455.46841408902918,-0.050326954059239655
455.48766072795701,-0.050370032522086869
455.50690736688483,-0.050399395499051577
