energy,intensity
629.99553449661744,-0.0025016858709539617
630.02352128367068,-0.0024203575449588326
630.05150807072391,-0.0023406621159307796
630.07949485777726,-0.0022625841157626935
630.1074816448305,-0.0021861080763484102
630.13546843188374,-0.0021112185295808113
630.16345521893697,-0.0020379000073531004
630.19144200599033,-0.0019661370415581902
630.21942879304356,-0.0018959141640898685
630.2474155800968,-0.0018272159068410412
630.27540236715004,-0.0017600268017049117
630.30338915420339,-0.0016943313805744202
630.33137594125662,-0.0016301141753433004
630.35936272830986,-0.0015673597179044867
630.3873495153631,-0.0015060525401511815
630.41533630241645,-0.0014461771739763467
630.44332308946969,-0.0013877181512736707
630.47130987652292,-0.0013306600039361119
630.49929666357616,-0.001274987263856871
630.52728345062951,-0.0012206844629289338
630.55527023768275,-0.0011677361330459434
630.58325702473599,-0.0011161268061008805
630.61124381178922,-0.001065841013986946
630.63923059884257,-0.0010168632885971466
630.66721738589581,-0.00096917816182508329
630.69520417294905,-0.00092277016556375699
630.72319096000228,-0.00087762383170636958
630.75117774705552,-0.00083372369214612478
630.77916453410887,-0.00079105427877605304
630.80715132116211,-0.00074960012348970523
630.83513810821535,-0.00070934575818010735
630.86312489526858,-0.00067027571474046128
630.89111168232193,-0.00063237452506381838
630.91909846937517,-0.00059562672104368996
630.94708525642841,-0.00056001683457312175
630.97507204348165,-0.00052552939754531617
631.003058830535,-0.00049214894185334258
631.03104561758823,-0.0004598599993906751
631.05903240464147,-0.00042864710205037812
631.08701919169471,-0.00039849478172565437
631.11500597874806,-0.00036938757030959007
631.1429927658013,-0.00034130999969562466
631.17097955285453,-0.00031424660177684029
631.19896633990777,-0.00028818190844643959
631.22695312696112,-0.00026310045159752484
631.25493991401436,-0.00023898676312350268
631.28292670106759,-0.00021582537491747207
631.31091348812083,-0.00019360081887263617
631.33890027517418,-0.00017229762688211107
631.36688706222742,-0.0001519003308392739
631.39487384928066,-0.00013239346263723832
631.42286063633389,-0.00011376155416920694
631.45084742338713,-9.598913732838333e-05
631.47883421044048,-7.9060744007901707e-05
631.50682099749372,-6.2960906101103647e-05
631.53480778454696,-4.7674155501118497e-05
631.56279457160019,-3.3185024101152201e-05
631.59078135865354,-1.9478043794350977e-05
631.61876814570678,-6.537746474030045e-06
631.64675493276002,5.651335966666126e-06
631.67474171981326,1.7104671634534546e-05
631.70272850686661,2.7837728636414752e-05
631.73071529391984,3.7865975079016381e-05
631.75870208097308,4.720487906918343e-05
631.78668886802632,5.5869908713711649e-05
631.81467565507967,6.3876532119430668e-05
631.84266244213291,7.1240217393072161e-05
631.87064922918614,7.7976432641468631e-05
631.89863601623938,8.4100645971415665e-05
631.92662280329273,8.9628325489733056e-05
631.95460959034597,9.4574939303173348e-05
631.9825963773992,9.8955955518557063e-05
632.01058316445244,0.0001027868422426818
632.03856995150579,0.00010608306758235758
632.06655673855903,0.0001088600996443549
632.09454352561227,0.00011113340653548618
632.1225303126655,0.00011291845636254719
632.15051709971885,0.00011423071723234041
632.17850388677209,0.00011508565725165345
632.20649067382533,0.00011549874452729015
632.23447746087857,0.00011548544716604581
632.2624642479318,0.00011506123327471987
632.29045103498515,0.00011424157096010494
632.31843782203839,0.00011304192832900468
632.34642460909163,0.00011147777348821447
632.37441139614486,0.00010956457454453183
632.40239818319822,0.00010731779960474445
632.43038497025145,0.0001047529167756671
632.45837175730469,0.00010188539416408995
632.48635854435793,9.873069987680912e-05
632.51434533141128,9.5304302020608224e-05
632.54233211846451,9.1621668702312499e-05
632.57031890551775,8.7698268028706529e-05
632.59830569257099,8.3549568106586333e-05
632.62629247962434,7.9191037042732537e-05
632.65427926667758,7.4638142943976886e-05
632.68226605373081,6.9906353917100492e-05
632.71025284078405,6.5011138068899756e-05
632.7382396278374,5.9967963506152647e-05
632.76622641489064,5.4792298335695788e-05
632.79421320194388,4.9499610664307581e-05
632.82219998899711,4.4105368598785512e-05
632.85018677605046,3.8625040245903754e-05
632.8781735631037,3.3074093712505436e-05
632.90616035015694,2.7467997105365058e-05
632.93414713721018,2.1822218531279561e-05
632.96213392426341,1.6152226097046972e-05
632.99012071131676,1.0473487909441141e-05
633.01810749837,4.8014720753067125e-06
633.04609428542324,-8.4835329858267989e-07
633.07408107247647,-6.4605201054304196e-06
633.10206785952983,-1.2019560238460273e-05
633.13005464658306,-1.7510005590830628e-05
633.1580414336363,-2.2916388055766227e-05
633.18602822068954,-2.8223239526470019e-05
633.21401500774289,-3.3415091896164578e-05
633.24200179479612,-3.8476477058011654e-05
633.26998858184936,-4.3391926905233602e-05
633.2979753689026,-4.8145973331034566e-05
633.32596215595595,-5.2723148228634624e-05
633.35394894300919,-5.7107983491198888e-05
633.38193573006242,-6.1285011011949931e-05
633.40992251711566,-6.5238762684089509e-05
633.43790930416901,-6.8953770400834776e-05
633.46589609122225,-7.2414566055358865e-05
633.49388287827549,-7.5605681540878277e-05
633.52186966532872,-7.8511648750598457e-05
633.54985645238207,-8.1116999577729399e-05
633.57784323943531,-8.3406265915453347e-05
633.60583002648855,-8.5363979656984633e-05
633.63381681354178,-8.6974672695526098e-05
633.66180360059502,-8.8222876924277981e-05
633.68979038764837,-8.9093124236449195e-05
633.71777717470161,-8.9569946525231954e-05
633.74576396175485,-8.9637875683835173e-05
633.77375074880808,-8.9281443605461475e-05
633.80173753586143,-8.8485182183307845e-05
633.82972432291467,-8.7233623310584282e-05
633.85771110996791,-8.5511298880492108e-05
633.88569789702115,-8.3302740786231995e-05
633.9136846840745,-8.0592480920995508e-05
633.94167147112773,-7.736505117800674e-05
633.96965825818097,-7.3604983450459641e-05
633.99764504523421,-6.9296809631555533e-05
634.02563183228756,-6.4425061614475573e-05
634.0536186193408,-5.8974271292463369e-05
634.08160540639403,-5.292897055870203e-05
634.10959219344727,-4.6273691306393527e-05
634.13757898050062,-3.8992965428712081e-05
634.16556576755386,-3.1071324818916692e-05
634.19355255460709,-2.2493301370182447e-05
634.22153934166033,-1.3243426975713055e-05
634.24952612871368,-3.3062335286688539e-06
634.27751291576692,7.3337470776683837e-06
634.30549970282016,1.869198295013268e-05
634.33348648987339,3.0783942195522929e-05
634.36147327692663,4.362509292063629e-05
634.38946006397998,5.72309032323263e-05
634.41744685103322,7.1616841237280831e-05
634.44543363808646,8.6798375042350384e-05
634.47342042513969,0.00010279097275433169
634.50140721219304,0.00011961010248009388
634.52939399924628,0.00013727123232629623
634.55738078629952,0.00015578983039980484
634.58536757335276,0.00017518136480741469
634.61335436040611,0.0001954613036560084
634.64134114745934,0.00021664511505221787
634.66932793451258,0.00023874826710292181
634.69731472156582,0.00026178622791491867
634.72530150861917,0.00028577446559510319
634.75328829567241,0.00031072844825007911
634.78127508272564,0.000336663643986739
634.80926186977888,0.00036359552091187958
634.83724865683223,0.00039153954713241597
634.86523544388547,0.00042051119075491505
634.8932222309387,0.00045052591988628803
634.92120901799194,0.00048159920263333468
634.94919580504529,0.00051374650710298096
634.97718259209853,0.00054698330140176337
635.00516937915177,0.0005813250536366105
635.033156166205,0.00061678723191431776
635.06114295325824,0.00065338530434168318
635.08912974031159,0.00069113473902565918
635.11711652736483,0.00073005100407273803
635.14510331441807,0.00077014956758986652
635.1730901014713,0.00081144589768384311
635.20107688852465,0.00085395546246163842
635.22906367557789,0.00089769373002970745
635.25705046263113,0.00094267616849501561
635.28503724968436,0.00098891824596436181
635.31302403673772,0.0010364354305447384
635.34101082379095,0.0010852431903425564
635.36899761084419,0.0011353569934648032
635.39698439789743,0.001186792308018277
635.42497118495078,0.0012395646021099924
635.45295797200401,0.0012936893438463166
635.48094475905725,0.0013491820013342608
635.50893154611049,0.001406058042680622
635.53691833316384,0.0014643329359924359
635.56490512021708,0.0015240221493760292
635.59289190727031,0.0015851411509384284
635.62087869432355,0.0016477054087864354
635.6488654813769,0.0017117303910271085
635.67685226843014,0.0017772315657667258
635.70483905548338,0.0018442244011123406
635.73282584253661,0.0019127243651707506
635.76081262958996,0.0019827469260490439
635.7887994166432,0.002054307551853444
635.81678620369644,0.0021274217106910312
635.84477299074968,0.0022021048706686065
635.87275977780291,0.0022783724998929628
635.90074656485626,0.0023562400664712182
635.9287333519095,0.0024357230385095396
635.95672013896274,0.0025168368841150352
635.98470692601597,0.0025995970713945044
636.01269371306932,0.002684019068455089
636.04068050012256,0.0027701183434028988
636.0686672871758,0.0028579103643450732
636.09665407422904,0.0029474105993884145
636.12464086128239,0.0030386345166400846
636.15262764833562,0.0031315975842061451
636.18061443538886,0.0032263152701937602
636.2086012224421,0.0033228030427097277
636.23658800949545,0.0034210763698612479
636.26457479654869,0.003521150719754315
636.29256158360192,0.0036230415604961291
636.32054837065516,0.0037267643601934849
636.34853515770851,0.0038323345869536096
636.37652194476175,0.0039397677088824452
636.40450873181499,0.0040490791940872174
636.43249551886822,0.0041602845106747154
636.46048230592157,0.0042733991267522101
636.48846909297481,0.0043884385104255696
636.51645588002805,0.0045054181298020551
636.54444266708128,0.0046243534529884604
636.57242945413452,0.0047452599480915835
636.60041624118787,0.0048681530832187245
636.62840302824111,0.004993048326475685
636.65638981529435,0.0051199611459697546
636.68437660234758,0.0052489070098077307
636.71236338940093,0.005379901386096949
636.74035017645417,0.0055129597429431406
636.76833696350741,0.005648097548453631
636.79632375056065,0.0057853302707352207
636.824310537614,0.0059246733778952733
636.85229732466723,0.0060661423380394559
636.88028411172047,0.0062097526192751284
636.90827089877371,0.0063555196897090872
636.93625768582706,0.0065034590174487365
636.9642444728803,0.0066535860705996697
636.99223125993353,0.0068059163172692842
637.02021804698677,0.0069604652255643717
637.04820483404012,0.0071172482635923741
637.07619162109336,0.0072762808994588169
637.10417840814659,0.0074375786012711269
637.13216519519983,0.0076011568371361048
637.16015198225318,0.0077670310751612234
637.18813876930642,0.0079352167834519337
637.21612555635966,0.008105729430115699
637.24411234341289,0.0082785844832593235
637.27209913046613,0.0084537974109895973
637.30008591751948,0.0086313836814140531
637.32807270457272,0.0088113587626380361
637.35605949162596,0.0089937381227690669
637.38404627867919,0.0091785372299139373
637.41203306573254,0.0093657715521802132
637.44001985278578,0.0095554565576731719
637.46800663983902,0.0097476077145003653
637.49599342689226,0.009942240490768587
637.52398021394561,0.010139573152908638
637.55196700099884,0.010341394704724727
637.57995378805208,0.010550227325322133
637.60794057510532,0.010768597325283439
637.63592736215867,0.010999031015192182
637.66391414921191,0.011244054705629076
637.69190093626514,0.011506194707177607
637.71988772331838,0.011787977330420358
637.74787451037173,0.01209192888594118
637.77586129742497,0.012420575684320196
637.8038480844782,0.012776444036141166
637.83183487153144,0.013162060251986678
637.85982165858479,0.013579950642441059
637.88780844563803,0.014032641518083517
637.91579523269127,0.014522659189498245
637.9437820197445,0.015052529967267834
637.97176880679774,0.015624780161974848
637.99975559385109,0.016241936084204479
638.02774238090433,0.016906524044534289
638.05572916795757,0.017621070353549269
638.0837159550108,0.018388101321832002
638.11170274206415,0.019210143259968514
638.13968952911739,0.020089722478534727
638.16767631617063,0.021029365288116428
638.19566310322386,0.022031597999296191
638.22364989027722,0.023098946922661075
638.25163667733045,0.024233938368784992
638.27962346438369,0.025439098648254724
638.30761025143693,0.026716954071652844
638.33559703849028,0.02807003094956758
638.36358382554351,0.02950085559257053
638.39157061259675,0.031011954311249618
638.41955739964999,0.032606387714599581
638.44754418670334,0.034296615220719695
638.47553097375658,0.036103124394565186
638.50351776080981,0.038046660830099048
638.53150454786305,0.040147970121277597
638.5594913349164,0.042427797862066782
638.58747812196964,0.044906889646404463
638.61546490902288,0.047605991068255818
638.64345169607611,0.05054584772157722
638.67143848312935,0.053747205200324916
638.6994252701827,0.057230809098470004
638.72741205723594,0.061017405009940566
638.75539884428918,0.065127738528706458
638.78338563134241,0.069582555248724018
638.81137241839576,0.074402600763969901
638.839359205449,0.07960862066836133
638.86734599250224,0.085221360555873399
638.89533277955547,0.091261566020462509
638.92331956660882,0.097747739273417497
638.95130635366206,0.10467498552831049
638.9792931407153,0.11202449834005578
639.00727992776854,0.11977728719971739
639.03526671482189,0.12791436159839334
639.06325350187512,0.13641673102708154
639.09124028892836,0.14526540497687829
639.1192270759816,0.15444139293884787
639.14721386303495,0.16392570440409338
639.17520065008819,0.17369934886360186
639.20318743714142,0.18374333580847535
639.23117422419466,0.19403867472977798
639.25916101124801,0.20456637511861703
639.28714779830125,0.21530744646597105
639.31513458535449,0.22624316209351561
639.34312137240772,0.23738198032136695
639.37110815946107,0.24878278263998166
639.39909494651431,0.26050992569809561
639.42708173356755,0.27262776614458306
639.45506852062078,0.28520066062827243
639.48305530767402,0.29829296579799192
639.51104209472737,0.31196903830262684
639.53902888178061,0.32629323479089489
639.56701566883385,0.34132991191167855
639.59500245588708,0.35714342631380636
639.62298924294043,0.37381123505346331
639.65097602999367,0.39153170476932714
639.67896281704691,0.41056850300129849
639.70694960410015,0.43118593478472467
639.7349363911535,0.45364830515504839
639.76292317820673,0.47821991914743583
639.79090996525997,0.50516508179732145
639.81889675231321,0.53445963162017485
639.84688353936656,0.56250133118879508
639.8748703264198,0.58326815231041751
639.90285711347303,0.59071343016377942
639.93084390052627,0.58379851621483481
639.95883068757962,0.57294401445731524
639.98681747463286,0.57016630907548171
640.01480426168609,0.58740133610848044
640.04279104873933,0.62912936804028374
640.07077783579268,0.68643830550135099
640.09876462284592,0.74901900918338082
640.12675140989916,0.80666112858850547
640.15473819695239,0.85392148167341897
640.18272498400563,0.89214645928042791
640.21071177105898,0.92320034395455752
640.23869855811222,0.94862540674077001
640.26668534516546,0.96922143632499347
640.29467213221869,0.98568392537176464
640.32265891927204,0.99870836654566619
640.35064570632528,1.0089902525111305
640.37863249337852,1.0172250759327537
640.40661928043176,1.0241083294750717
640.43460606748511,1.0301306908926349
640.46259285453834,1.0343209712692607
640.49057964159158,1.0350728014412669
640.51856642864482,1.0313437086752193
640.54655321569817,1.0238449454635119
640.57454000275141,1.0136260956321284
640.60252678980464,1.0017362862950416
640.63051357685788,0.9890734252794674
640.65850036391123,0.97616632817366211
640.68648715096447,0.96348855570009273
640.7144739380177,0.95151366858106901
640.74246072507094,0.94071522753895143
640.77044751212429,0.93156679329606851
640.79843429917753,0.92454187912014651
640.82642108623077,0.91993089232497816
640.854407873284,0.9174265399687106
640.88239466033724,0.91659977192705366
640.91038144739059,0.91702153807571951
640.93836823444383,0.91826278829041286
640.96635502149707,0.91989447244684197
640.9943418085503,0.92148754042071634
641.02232859560365,0.92264084290169734
641.05031538265689,0.92326187225249068
641.07830216971013,0.92345003211805932
641.10628895676336,0.92330761570140729
641.13427574381672,0.92293691620553864
641.16226253086995,0.92244022683346039
641.19024931792319,0.92191984078817724
641.21823610497643,0.92147805127269333
641.24622289202978,0.92121715149001315
641.27420967908301,0.92123943464314428
641.30219646613625,0.92164720416843504
641.33018325318949,0.92255488384660433
641.35817004024284,0.92411246650932077
641.38615682729608,0.92647643633088694
641.41414361434931,0.92980327748562286
641.44213040140255,0.93424947414784221
641.4701171884559,0.93997151049188576
641.49810397550914,0.9471258706920227
641.52609076256238,0.95577134385196993
641.55407754961561,0.96556701310252613
641.58206433666896,0.97606975292714315
641.6100511237222,0.98683643776651508
641.63803791077544,0.99742394206146345
641.66602469782868,1.0073891402527684
641.69401148488191,1.0162889067812109
641.72199827193526,1.0237047685624037
641.7499850589885,1.0295979919065692
641.77797184604174,1.0342278259179682
641.80595863309497,1.0378615189627309
641.83394542014832,1.0407663194069985
641.86193220720156,1.043209475616879
641.8899189942548,1.0454582359585154
641.91790578130804,1.0477731484187511
641.94589256836139,1.0502402181706108
641.97387935541462,1.0527587388205752
642.00186614246786,1.0552188663794997
642.0298529295211,1.0575107568582311
642.05783971657445,1.0595245662676227
642.08582650362769,1.0611504506185039
642.11381329068092,1.0622785659217298
642.14180007773416,1.0627990681881467
642.16978686478751,1.0626021134285986
642.19777365184075,1.061577857653933
642.22576043889399,1.0596370409605798
642.25374722594722,1.0568103670305955
642.28173401300046,1.0531718795929146
642.30972080005381,1.0487956813263897
642.33770758710705,1.0437558749099269
642.36569437416028,1.0381265630223822
642.39368116121352,1.0319818157350495
642.42166794826687,1.0253892166594589
642.44965473532011,1.0184020812330277
642.47764152237335,1.011071825537347
642.50562830942658,1.0034498656540327
642.53361509647993,0.99558761766466952
642.56160188353317,0.98753649765093754
642.58958867058641,0.97934792169442186
642.61757545763965,0.97107330587673923
642.645562244693,0.96276406627947175
642.67354903174623,0.95447161898430366
642.70153581879947,0.94624738007281817
642.72952260585271,0.93814276562663168
642.75750939290606,0.9302091917273283
642.7854961799593,0.92249807445658982
642.81348296701253,0.91505076812268415
642.84146975406577,0.90778725829640172
642.86945654111912,0.9005470865987667
642.89744332817236,0.89316835433573838
642.92543011522559,0.88548916281318724
642.95341690227883,0.87734761333701383
642.98140368933218,0.86858180721308176
643.00939047638542,0.85906008021113067
643.03737726343866,0.84928533404688844
643.06536405049189,0.84036297753811362
643.09335083754513,0.83342221559639951
643.12133762459848,0.82908545149973079
643.14932441165172,0.82615490646969225
643.17731119870496,0.82302432322218211
643.20529798575819,0.81808787350746093
643.23328477281154,0.81041056644653653
643.26127155986478,0.80108492180160373
643.28925834691802,0.79158501148956084
643.31724513397126,0.78318402374756035
643.34523192102461,0.77604962239457298
643.37321870807784,0.76997119171564909
643.40120549513108,0.7647377846143526
643.42919228218432,0.76013845399427815
643.45717906923767,0.75596225275900453
643.48516585629091,0.7519982338121598
643.51315264334414,0.74803178741408261
643.54113943039738,0.74374765447178459
643.56912621745073,0.73871986700053593
643.59711300450397,0.73251677673965165
643.6250997915572,0.72473756711500936
643.65308657861044,0.71563409652396326
643.68107336566379,0.70608099527234336
643.70906015271703,0.69697220642634206
643.73704693977027,0.6888213856150498
643.7650337268235,0.68152319509155024
643.79302051387674,0.67491544059154984
