energy,intensity
445.99906773653208,-0.0093532102431881925
446.01831437545991,-0.0090528526435219026
446.03756101438779,-0.008755837858021559
446.05680765331562,-0.0084621509845755616
446.07605429224344,-0.0081717771210700063
446.09530093117127,-0.0078847013653915166
446.11454757009915,-0.0076009088154259385
446.13379420902697,-0.0073203845690618941
446.1530408479548,-0.007043113724185146
446.17228748688262,-0.0067690813786824289
446.19153412581051,-0.006498272630439561
446.21078076473833,-0.0062306725773451921
446.23002740366616,-0.0059662663172851682
446.24927404259398,-0.0057050389481460573
446.26852068152186,-0.0054469755678140941
446.28776732044969,-0.0051920612741773453
446.30701395937751,-0.004940281165121907
446.32626059830534,-0.0046916203385344024
446.34550723723322,-0.0044460638923009554
446.36475387616105,-0.004203596924309716
446.38400051508887,-0.0039642045324468078
446.4032471540167,-0.0037278718145988265
446.42249379294458,-0.0034945838686519237
446.4417404318724,-0.0032643257924942215
446.46098707080023,-0.0030370826840117049
446.48023370972805,-0.0028128396410911638
446.49948034865594,-0.0025915817616186665
446.51872698758376,-0.0023732941434823074
446.53797362651159,-0.0021579618845681547
446.55722026543941,-0.0019455700827629707
446.57646690436729,-0.0017361038359528236
446.59571354329512,-0.0015295482420258077
446.61496018222294,-0.0013258883988678805
446.63420682115077,-0.0011251094043659426
446.65345346007865,-0.00092719635640614584
446.67270009900648,-0.00073213435287625139
446.6919467379343,-0.00053990849166254962
446.71119337686213,-0.00035050387065174715
446.73044001579001,-0.00016390558773007879
446.74968665471783,1.9901259214721856e-05
446.76893329364566,0.00020093157229622571
446.78817993257348,0.00037920025362800369
446.80742657150137,0.00055472220532359895
446.82667321042919,0.00072751232949530564
446.84591984935702,0.00089758552825686122
446.86516648828484,0.001064956703721559
446.88441312721272,0.0012296407580031088
446.90365976614055,0.0013916525932138601
446.92290640506837,0.0015510071114676199
446.9421530439962,0.0017077192148773901
446.96139968292408,0.0018618038055569913
446.98064632185191,0.002013275785618926
446.99989296077973,0.0021621500571767371
447.01913959970756,0.002308441522343746
447.03838623863544,0.0024521650832335651
447.05763287756326,0.0025933356419587383
447.07687951649109,0.0027319681006327812
447.09612615541892,0.0028680773613690286
447.1153727943468,0.003001678326281107
447.13461943327462,0.0031327858974815326
447.15386607220245,0.0032614149770838763
447.17311271113027,0.0033875804672014592
447.19235935005815,0.0035112972699478939
447.21160598898598,0.0036325802874357521
447.23085262791381,0.0037514444217785492
447.25009926684163,0.0038679045750895369
447.26934590576951,0.0039819756494824526
447.28859254469734,0.0040936725470697016
447.30783918362516,0.0042030101699650074
447.32708582255304,0.0043100034202818993
447.34633246148087,0.0044146672001329629
447.3655791004087,0.0045170164116317968
447.38482573933652,0.0046170659568916944
447.4040723782644,0.0047148307380261156
447.42331901719223,0.0048103256571477848
447.44256565612005,0.0049035656163703423
447.46181229504788,0.0049945655178068732
447.48105893397576,0.0050833402635709901
447.50030557290359,0.0051699047557754174
447.51955221183141,0.0052542738965336289
447.53879885075924,0.0053364625879589178
447.55804548968712,0.0054164857321647997
447.57729212861494,0.0054943582312640127
447.59653876754277,0.0055700949873700445
447.61578540647059,0.0056437109025962301
447.63503204539848,0.0057152208790559184
447.6542786843263,0.0057846398188620557
447.67352532325413,0.005851982624127991
447.69277196218195,0.0059172641969670869
447.71201860110983,0.0059804994394927063
447.73126524003766,0.0060417032538177262
447.75051187896548,0.0061008905420557036
447.76975851789331,0.0061580762063197653
447.78900515682119,0.0062132751487234406
447.80825179574902,0.0062665022713795371
447.82749843467684,0.0063177724764015564
447.84674507360467,0.0063671006659027918
447.86599171253255,0.006414501741996495
447.88523835146037,0.0064599906067957374
447.9044849903882,0.0065035821624139581
447.92373162931602,0.0065452913109643254
447.94297826824391,0.0065851329545602647
447.96222490717173,0.0066231219953147222
447.98147154609956,0.0066592733353411648
448.00071818502738,0.0066936018767528235
448.01996482395526,0.0067261225216630194
448.03921146288309,0.0067568501721848306
448.05845810181091,0.0067857997304316062
448.07770474073874,0.0068129860985165908
448.09695137966662,0.0068384241785530986
448.11619801859445,0.0068621288726543397
448.13544465752227,0.0068841150829335035
448.1546912964501,0.0069043977115039804
448.17393793537798,0.0069229916604789596
448.1931845743058,0.0069399118319716374
448.21243121323363,0.0069551731280953211
448.23167785216145,0.006968790450963297
448.25092449108934,0.0069807787026888238
448.27017113001716,0.0069911527853850561
448.28941776894499,0.0069999276011653427
448.30866440787281,0.0070071180521429285
448.32791104680069,0.007012739040431086
448.34715768572852,0.0070168054681429767
448.36640432465634,0.0070193322373919426
448.38565096358417,0.0070203342502912144
448.40489760251205,0.0070198264089540441
448.42414424143988,0.007017823615493711
448.4433908803677,0.0070143407720234113
448.46263751929553,0.007009392780656494
448.48188415822341,0.0070029945435061136
448.50113079715123,0.0069951609626855947
448.52037743607906,0.006985906940308189
448.53962407500694,0.0069752473784870581
448.55887071393477,0.0069631971793355785
448.57811735286259,0.0069497712449669846
448.59736399179042,0.0069349844774944831
448.6166106307183,0.0069188517790313361
448.63585726964612,0.0069013880516908162
448.65510390857395,0.0068826081975862097
448.67435054750177,0.0068625271188307441
448.69359718642966,0.0068411597175376052
448.71284382535748,0.0068185208958201418
448.73209046428531,0.0067946255557916196
448.75133710321313,0.0067694885995652765
448.77058374214101,0.0067431249292542392
448.78983038106884,0.0067155494469719502
448.80907701999666,0.006686777054831592
448.82832365892449,0.0066568226549464267
448.84757029785237,0.0066257011494295723
448.8668169367802,0.0065934274403945184
448.88606357570802,0.0065600164299544177
448.90531021463585,0.0065254830202225167
448.92455685356373,0.006489842113311977
448.94380349249155,0.0064531086113362307
448.96305013141938,0.0064152974164084619
448.9822967703472,0.0063764234306419344
449.00154340927509,0.0063365015561497526
449.02079004820291,0.0062955466950454352
449.04003668713074,0.0062535737494420849
449.05928332605856,0.0062105976214529793
449.07852996498644,0.0061666332131912697
449.09777660391427,0.0061216954267704262
449.11702324284209,0.0060757991643035913
449.13626988176992,0.0060289593279040246
449.1555165206978,0.0059811908196848677
449.17476315962563,0.0059325085417595907
449.19400979855345,0.0058829273962413579
449.21325643748128,0.0058324622852434218
449.23250307640916,0.0057811281108788599
449.25174971533698,0.0057289397752612586
449.27099635426481,0.0056759121805037118
449.29024299319263,0.0056220602287194799
449.30948963212052,0.0055673988220216308
449.32873627104834,0.0055119428625237648
449.34798290997617,0.0054557072523390088
449.36722954890399,0.0053987068935805547
449.38647618783187,0.0053409566883615188
449.4057228267597,0.005282471538795493
449.42496946568752,0.0052232663469955693
449.44421610461535,0.0051633560150749882
449.46346274354323,0.0051027554451468539
449.48270938247106,0.0050414795393247452
449.50195602139888,0.004979543199721756
449.52120266032671,0.0049169613284511344
449.54044929925459,0.004853748827625977
449.55969593818241,0.0047899205993598556
449.57894257711024,0.004725491545765897
449.59818921603807,0.0046604765689573372
449.61743585496595,0.0045948905710472129
449.63668249389377,0.0045287484541492061
449.6559291328216,0.0044620651203763715
449.67517577174942,0.0043948554718419323
449.6944224106773,0.0043271344106589537
449.71366904960513,0.004258916838941122
449.73291568853296,0.0041902176588014765
449.75216232746078,0.0041210517723532444
449.77140896638866,0.0040514340817095155
449.79065560531649,0.003981379488983942
449.80990224424431,0.0039109028962895538
449.82914888317214,0.0038400192057396476
449.84839552210002,0.0037687433194472358
449.86764216102785,0.0036970901395260141
449.88688879995567,0.0036250745680889741
449.90613543888355,0.0035527115072492461
449.92538207781138,0.0034800158591204583
449.9446287167392,0.003407002525815668
449.96387535566703,0.0033336864094481028
449.98312199459491,0.0032600824121308374
450.00236863352274,0.0031862054359775467
450.02161527245056,0.0031120703831012571
450.04086191137839,0.0030376921556152549
450.06010855030627,0.0029630856556325316
450.07935518923409,0.0028882657852668213
450.09860182816192,0.002813247446631157
450.11784846708974,0.0027380455418387524
450.13709510601763,0.0026626749730026752
450.15634174494545,0.0025871506422366353
450.17558838387328,0.0025114874516536344
450.1948350228011,0.0024357003033669521
450.21408166172898,0.0023598040994896319
450.23332830065681,0.0022838137421353245
450.25257493958463,0.0022077441334171118
450.27182157851246,0.0021316101754482245
450.29106821744034,0.0020554267703416888
450.31031485636817,0.0019792088202112493
450.32956149529599,0.0019029712271698834
450.34880813422382,0.0018267288933308742
450.3680547731517,0.0017504967208072757
450.38730141207952,0.0016742896117127211
450.40654805100735,0.001598122468160313
450.42579468993517,0.001522010192263272
450.44504132886306,0.001445967686134652
450.46428796779088,0.0013700098518881175
450.48353460671871,0.0012941515916367399
450.50278124564653,0.0012184078074937502
450.52202788457441,0.0011427934015721952
450.54127452350224,0.001067323275985764
450.56052116243006,0.00099201233284749307
450.57976780135789,0.00091687547427065502
450.59901444028577,0.0008419276023682587
450.6182610792136,0.00076718361925400685
450.63750771814142,0.00069265842704095346
450.65675435706925,0.00061836692784231553
450.67600099599713,0.00054432402377117134
450.69524763492495,0.00047054461694119934
450.71449427385278,0.00039704360946542575
450.7337409127806,0.00032383590345709881
450.75298755170849,0.00025093640102928638
450.77223419063631,0.00017836000429567039
450.79148082956414,0.00010612161536925624
450.81072746849196,3.4236136363326869e-05
450.82997410741984,-3.728153060907069e-05
450.84922074634767,-0.00010841648343424062
450.86846738527549,-0.00017915381999919489
450.88771402420332,-0.00024947863819063318
450.9069606631312,-0.00031937603589552235
450.92620730205903,-0.00038883111100020476
450.94545394098685,-0.00045782896139159174
450.96470057991468,-0.00052635468495646973
450.98394721884256,-0.00059439337958176741
451.00319385777038,-0.00066193014315382021
451.02244049669821,-0.00072895007355958802
451.04168713562603,-0.00079543826868581566
451.06093377455392,-0.00086137982641942487
451.08018041348174,-0.00092675984464678576
451.09942705240957,-0.00099156342125485478
451.11867369133745,-0.0010557756541305086
451.13792033026527,-0.0011193816411601866
451.1571669691931,-0.0011823664802307621
451.17641360812092,-0.0012447152692290353
451.19566024704881,-0.0013064131060418691
451.21490688597663,-0.0013674450885556924
451.23415352490446,-0.0014277963146573994
451.25340016383228,-0.0014874518822337729
451.27264680276016,-0.0015463968891717
451.29189344168799,-0.0016046164333575821
451.31114008061581,-0.0016620956126783548
451.33038671954364,-0.0017188195250207525
451.34963335847152,-0.001774773268271676
451.36887999739935,-0.0018299419403175338
451.38812663632717,-0.0018843106390452752
451.407373275255,-0.0019378644623416
451.42661991418288,-0.0019905885080934577
451.4458665531107,-0.0020424678741872079
451.46511319203853,-0.002093487658509828
451.48435983096635,-0.0021436329589480246
451.50360646989424,-0.0021928888733886986
451.52285310882206,-0.0022412404997182861
451.54209974774989,-0.002288672935823681
451.56134638667771,-0.0023351712795916385
451.58059302560559,-0.0023807206289090319
451.59983966453342,-0.0024253060816623387
451.61908630346124,-0.0024689127357384599
451.63833294238907,-0.0025115256890241092
451.65757958131695,-0.0025531300394061526
451.67682622024478,-0.0025937108847711027
451.6960728591726,-0.0026332533230058325
451.71531949810043,-0.0026717424519970626
451.73456613702831,-0.0027091633696316973
451.75381277595613,-0.002745501173796204
451.77305941488396,-0.0027807409623774836
451.79230605381179,-0.0028148678332622322
451.81155269273967,-0.0028478668843373335
451.83079933166749,-0.0028797232134892999
451.85004597059532,-0.0029104219186050148
451.86929260952314,-0.0029399480975712128
451.88853924845102,-0.002968286848274708
451.90778588737885,-0.0029954232686020647
451.92703252630668,-0.0030213424564401528
451.9462791652345,-0.0030460295096756719
451.96552580416238,-0.0030694695261954605
451.98477244309021,-0.0030916476038861454
452.00401908201803,-0.0031125488406344923
452.02326572094586,-0.0031321583343272702
452.04251235987374,-0.0031504611828512968
452.06175899880157,-0.0031674424840931747
452.08100563772939,-0.003183087335939732
452.10025227665722,-0.0031973808362776926
452.1194989155851,-0.0032103080829938534
452.13874555451292,-0.0032218541739748516
452.15799219344075,-0.0032320042071075014
452.17723883236857,-0.0032407432802785477
452.19648547129646,-0.0032480564913747387
452.21573211022428,-0.0032539289382828018
452.23497874915211,-0.0032583457188894716
452.25422538807993,-0.0032612919310815169
452.27347202700781,-0.0032627526727456654
452.29271866593564,-0.0032627130417686931
452.31196530486346,-0.00326115813603731
452.33121194379135,-0.0032580730534382402
452.35045858271917,-0.0032534428918582908
452.369705221647,-0.0032472527491841756
452.38895186057482,-0.0032394877233026566
452.4081984995027,-0.0032301383077825048
452.42744513843053,-0.0032192198178585471
452.44669177735835,-0.0032067547018643401
452.46593841628618,-0.0031927654087613618
452.48518505521406,-0.0031772743875110449
452.50443169414189,-0.0031603040870749159
452.52367833306971,-0.0031418769564144251
452.54292497199754,-0.003122015444491047
452.56217161092542,-0.003100742000266183
452.58141824985324,-0.00307807907270145
452.60066488878107,-0.0030540491107582494
452.61991152770889,-0.0030286745633980386
452.63915816663678,-0.0030019778795822259
452.6584048055646,-0.0029739815082724455
452.67765144449243,-0.0029447078984300781
452.69689808342025,-0.0029141794990166156
452.71614472234813,-0.0028824187589934075
452.73539136127596,-0.0028494481273221468
452.75463800020378,-0.0028152900529641971
452.77388463913161,-0.0027799669848810084
452.79313127805949,-0.0027435013720339962
452.81237791698732,-0.0027059156633848017
452.83162455591514,-0.0026672323078948089
452.85087119484297,-0.0026274737545255097
452.87011783377085,-0.0025866624522382226
452.88936447269867,-0.002544820849994682
452.9086111116265,-0.0025019713967562307
452.92785775055432,-0.002458136541484357
452.94710438948221,-0.0024133387331403966
452.96635102841003,-0.0023676004206860599
452.98559766733786,-0.0023209440530827206
453.00484430626568,-0.0022733920792918343
453.02409094519356,-0.0022249669482747331
453.04333758412139,-0.0021756911089931864
453.06258422304921,-0.0021255870104085195
453.08183086197704,-0.0020746771014821946
453.10107750090492,-0.0020229838311755458
453.12032413983275,-0.0019705296484503355
453.13957077876057,-0.0019173370022679027
453.1588174176884,-0.0018634283415897013
453.17806405661628,-0.0018088261153770494
453.1973106955441,-0.0017535527725917634
453.21655733447193,-0.0016976307621951164
453.23580397339975,-0.0016410825331486037
453.25505061232764,-0.0015839305344135367
453.27429725125546,-0.0015261972149517074
453.29354389018329,-0.0014679050237244428
453.31279052911111,-0.0014090764096931913
453.33203716803899,-0.0013497338218192538
453.35128380696682,-0.0012898997090644692
453.37053044589464,-0.0012295965203901306
453.38977708482247,-0.0011688467047577013
453.40902372375035,-0.0011076727111284769
453.42827036267818,-0.0010460969884642972
453.447517001606,-0.00098414198572644926
453.46676364053383,-0.00092183015187640056
453.48601027946171,-0.000859183935875453
453.50525691838953,-0.00079622578668542927
453.52450355731736,-0.00073297815326765423
453.54375019624518,-0.00066946348458354812
453.56299683517307,-0.00060570422959444186
453.58224347410089,-0.00054172283726216467
453.60149011302872,-0.00047754175654801407
453.62073675195654,-0.0004131834364134333
453.63998339088442,-0.00034867032581971553
453.65923002981225,-0.00028402487372875072
453.67847666874007,-0.00021926952910176437
453.69772330766796,-0.00015442674090010173
453.71696994659578,-8.9518958085548633e-05
453.73621658552361,-2.45686296194347e-05
453.75546322445143,4.0401795536766476e-05
453.77470986337931,0.00010536986842182676
453.79395650230714,0.00017031314007381372
453.81320314123496,0.00023520916153150009
453.83244978016279,0.0003000354838333906
453.85169641909067,0.00036476965801820332
453.8709430580185,0.00042938923512412554
453.89018969694632,0.00049387176618980941
453.90943633587415,0.00055819480225381864
453.92868297480203,0.00062233589435487652
453.94792961372985,0.00068627259353109052
453.96717625265768,0.00074998245082120822
453.98642289158551,0.0008134430172637673
454.00566953051339,0.00087663184389746157
454.02491616944121,0.00093952648176046268
454.04416280836904,0.0010021044818914748
454.06340944729686,0.001064343395329001
454.08265608622474,0.0011262207731117767
454.10190272515257,0.0011877141662779908
454.1211493640804,0.0012488011258662904
454.14039600300822,0.0013094592029152599
454.1596426419361,0.0013696659484635637
454.17888928086393,0.0014293989135493942
454.19813591979175,0.0014886356492114401
454.21738255871958,0.0015473537064882442
454.23662919764746,0.001605530636418516
454.25587583657529,0.0016631439900404096
454.27512247550311,0.0017201713183926451
454.29436911443094,0.0017765901725137374
454.31361575335882,0.0018323781034423822
454.33286239228664,0.0018875126622168031
454.35210903121447,0.0019419713998756402
454.37135567014229,0.0019957318674574606
454.39060230907018,0.0020487716160009287
454.409848947998,0.0021010681965442923
454.42909558692583,0.0021525991601261812
454.44834222585365,0.0022033420577851556
454.46758886478153,0.0022532744405598694
454.48683550370936,0.0023023738594885948
454.50608214263718,0.0023506178656099719
454.52532878156501,0.0023979840099625505
454.54457542049289,0.0024444498435849601
454.56382205942072,0.0024899929175154767
454.58306869834854,0.0025345907827927713
454.60231533727637,0.0025782209904553766
454.62156197620425,0.0026208610915419081
454.64080861513207,0.0026624886370906764
454.6600552540599,0.0027030811781403111
454.67930189298772,0.0027426162657293862
454.69854853191561,0.0027810714508964759
454.71779517084343,0.0028184242846799323
454.73704180977126,0.0028546523181183572
454.75628844869908,0.002889733102250297
454.77553508762696,0.0029236441881143951
454.79478172655479,0.0029563631267489621
454.81402836548261,0.0029878674691926066
454.83327500441044,0.0030181347664838959
454.85252164333832,0.0030471425696613971
454.87176828226615,0.0030748684297635109
454.89101492119397,0.0031012898978288322
454.91026156012185,0.0031263845248959421
454.92950819904968,0.003150129862003255
454.9487548379775,0.0031725034601893451
454.96800147690533,0.0031934828704927448
454.98724811583321,0.0032130456439520491
455.00649475476104,0.0032311693316056586
455.02574139368886,0.0032478314844921752
455.04498803261669,0.0032630096536500897
455.06423467154457,0.0032766813901179831
455.08348131047239,0.0032888242449343741
455.10272794940022,0.0032994157691377535
455.12197458832804,0.003308433513766626
455.14122122725593,0.0033158550298595935
455.16046786618375,0.003321657868455119
455.17971450511158,0.0033258195805917767
455.1989611440394,0.0033283177173080436
455.21820778296728,0.0033291439551652036
455.23745442189511,0.0033284162563300967
455.25670106082293,0.0033263190506332418
455.27594769975076,0.0033230373618106518
