energy,intensity
445.99906773653208,-0.0045456590453840269
446.01831437545991,-0.0044887461837185144
446.03756101438779,-0.0044322356822621423
446.05680765331562,-0.0043761262493384745
446.07605429224344,-0.0043204165932705721
446.09530093117127,-0.0042651054223816764
446.11454757009915,-0.004210191444994852
446.13379420902697,-0.0041556733694336732
446.1530408479548,-0.0041015499040211872
446.17228748688262,-0.0040478197570806458
446.19153412581051,-0.0039944816369351169
446.21078076473833,-0.0039415342519081541
446.23002740366616,-0.0038889763103228323
446.24927404259398,-0.0038368065205023841
446.26852068152186,-0.0037850235907698881
446.28776732044969,-0.0037336262294488873
446.30701395937751,-0.0036826131448624636
446.32626059830534,-0.0036319830453338496
446.34550723723322,-0.0035817346391861273
446.36475387616105,-0.003531866634742831
446.38400051508887,-0.0034823777403270428
446.4032471540167,-0.0034332666642619952
446.42249379294458,-0.0033845321148707874
446.4417404318724,-0.0033361728004769314
446.46098707080023,-0.0032881874294035211
446.48023370972805,-0.0032405747099737946
446.49948034865594,-0.0031933333505108318
446.51872698758376,-0.003146462059338162
446.53797362651159,-0.0030999595447788672
446.55722026543941,-0.0030538245151561852
446.57646690436729,-0.0030080556787932203
446.59571354329512,-0.0029626517440134708
446.61496018222294,-0.0029176114191400305
446.63420682115077,-0.0028729334124961477
446.65345346007865,-0.0028286164324049096
446.67270009900648,-0.0027846591871898158
446.6919467379343,-0.0027410603851739761
446.71119337686213,-0.0026978187346806178
446.73044001579001,-0.0026549329440328541
446.74968665471783,-0.0026124017215541639
446.76893329364566,-0.0025702237755676587
446.78817993257348,-0.0025283978143965727
446.80742657150137,-0.0024869225463640138
446.82667321042919,-0.0024457966797934681
446.84591984935702,-0.0024050189230080381
446.86516648828484,-0.0023645879843309618
446.88441312721272,-0.0023245025720853522
446.90365976614055,-0.0022847613945946848
446.92290640506837,-0.002245363160182071
446.9421530439962,-0.0022063065771707434
446.96139968292408,-0.0021675903538838238
446.98064632185191,-0.0021292131986447756
446.99989296077973,-0.002091173819776717
447.01913959970756,-0.0020534709256028807
447.03838623863544,-0.0020161032244463851
447.05763287756326,-0.0019790694246306986
447.07687951649109,-0.0019423682344789309
447.09612615541892,-0.0019059983623143234
447.1153727943468,-0.0018699585164600029
447.13461943327462,-0.0018342474052394104
447.15386607220245,-0.0017988637369756796
447.17311271113027,-0.0017638062199920399
447.19235935005815,-0.0017290735626116216
447.21160598898598,-0.0016946644731578708
447.23085262791381,-0.0016605776599539126
447.25009926684163,-0.0016268118313229815
447.26934590576951,-0.0015933656955882131
447.28859254469734,-0.0015602379610730362
447.30783918362516,-0.0015274273361005914
447.32708582255304,-0.0014949325289940136
447.34633246148087,-0.001462752248076727
447.3655791004087,-0.0014308852016718682
447.38482573933652,-0.001399330098102676
447.4040723782644,-0.0013680856456922876
447.42331901719223,-0.0013371505527641232
447.44256565612005,-0.0013065235276413251
447.46181229504788,-0.0012762032786471211
447.48105893397576,-0.0012461885141046673
447.50030557290359,-0.0012164779423373632
447.51955221183141,-0.0011870702716683624
447.53879885075924,-0.0011579642104208917
447.55804548968712,-0.0011291584669181048
447.57729212861494,-0.0011006517494834035
447.59653876754277,-0.0010724427664399365
447.61578540647059,-0.0010445302261109408
447.63503204539848,-0.0010169128368195633
447.6542786843263,-0.0009895893068892006
447.67352532325413,-0.00096255834464301256
447.69277196218195,-0.00093581865840422496
447.71201860110983,-0.00090936895649599593
447.73126524003766,-0.00088320794724171953
447.75051187896548,-0.0008573343389645452
447.76975851789331,-0.00083174683998770912
447.78900515682119,-0.00080644415863437117
447.80825179574902,-0.00078142500322791152
447.82749843467684,-0.00075668808209149174
447.84674507360467,-0.00073223210354834631
447.86599171253255,-0.00070805577592163334
447.88523835146037,-0.0006841578075347382
447.9044849903882,-0.0006605369067108121
447.92373162931602,-0.0006371917817730938
447.94297826824391,-0.00061412114104475272
447.96222490717173,-0.00059132369284915255
447.98147154609956,-0.00056879814550946529
448.00071818502738,-0.00054654320734891758
448.01996482395526,-0.00052455758669068143
448.03921146288309,-0.00050283999185812226
448.05845810181091,-0.00048138913117440688
448.07770474073874,-0.00046020371296276626
448.09695137966662,-0.00043928244554638065
448.11619801859445,-0.00041862403724859986
448.13544465752227,-0.00039822719639259633
448.1546912964501,-0.00037809063130160754
448.17393793537798,-0.00035821305029880551
448.1931845743058,-0.00033859316170754307
448.21243121323363,-0.0003192296738509957
448.23167785216145,-0.00030012129505239352
448.25092449108934,-0.00028126673363491807
448.27017113001716,-0.00026266469792191353
448.28941776894499,-0.0002443138962365571
448.30866440787281,-0.0002262130369020841
448.32791104680069,-0.00020836082824167435
448.34715768572852,-0.0001907559785786694
448.36640432465634,-0.00017339719623624518
448.38565096358417,-0.00015628318953764047
448.40489760251205,-0.00013941266680603422
448.42414424143988,-0.00012278433636476235
448.4433908803677,-0.00010639690653701421
448.46263751929553,-9.0249085646012563e-05
448.48188415822341,-7.4339582014953682e-05
448.50113079715123,-5.8667103967161797e-05
448.52037743607906,-4.3230359825822354e-05
448.53962407500694,-2.8028057914122537e-05
448.55887071393477,-1.3058906555393941e-05
448.57811735286259,1.6783859271823215e-06
448.59736399179042,1.6185111210370064e-05
448.6166106307183,3.0462560970977333e-05
448.63585726964612,4.4512026885689011e-05
448.65510390857395,5.8334800631309244e-05
448.67435054750177,7.1932173884606179e-05
448.69359718642966,8.5305438322385695e-05
448.71284382535748,9.8455885621335061e-05
448.73209046428531,0.00011138480745826059
448.75133710321313,0.00012409349550992501
448.77058374214101,0.00013658324145313767
448.78983038106884,0.00014885533696458626
448.80907701999666,0.00016091107372107581
448.82832365892449,0.00017275174339937208
448.84757029785237,0.00018437863767627617
448.8668169367802,0.00019579304822848445
448.88606357570802,0.00020699626673279967
448.90531021463585,0.00021798958486598575
448.92455685356373,0.00022877429430484314
448.94380349249155,0.00023935168672607255
448.96305013141938,0.00024972305380647152
448.9822967703472,0.00025988968722280928
449.00154340927509,0.00026985287865187918
449.02079004820291,0.00027961391977038839
449.04003668713074,0.00028917410225513362
449.05928332605856,0.00029853471778288373
449.07852996498644,0.00030769705803042823
449.09777660391427,0.00031666241467447927
449.11702324284209,0.00032543207939183188
449.13626988176992,0.00033400734385925042
449.1555165206978,0.00034238949975352905
449.17476315962563,0.0003505798387513814
449.19400979855345,0.00035857965252960081
449.21325643748128,0.00036639023276495257
449.23250307640916,0.00037401287113422374
449.25174971533698,0.00038144885931413954
449.27099635426481,0.00038869948898148524
449.29024299319263,0.00039576605181303041
449.30948963212052,0.00040264983948555918
449.32873627104834,0.00040935214367579683
449.34798290997617,0.00041587425606052819
449.36722954890399,0.0004222174683165249
449.38647618783187,0.0004283830721205694
449.4057228267597,0.00043437235914938952
449.42496946568752,0.00044018662107976982
449.44421610461535,0.00044582714958848026
449.46346274354323,0.00045129523635229949
449.48270938247106,0.00045659217304796227
449.50195602139888,0.00046171925135225311
449.52120266032671,0.00046667776294193758
449.54044929925459,0.00047146899949379096
449.55969593818241,0.00047609425268455919
449.57894257711024,0.00048055481419101713
449.59818921603807,0.00048485197568993446
449.61743585496595,0.00048898702885808733
449.63668249389377,0.0004929612653722167
449.6559291328216,0.00049677597690910642
449.67517577174942,0.00050043245514551631
449.6944224106773,0.00050393199175822697
449.71366904960513,0.00050727587842398303
449.73291568853296,0.00051046540681955882
449.75216232746078,0.000513501868621724
449.77140896638866,0.00051638655550725302
449.79065560531649,0.00051912075915289319
449.80990224424431,0.00052170577123541962
449.82914888317214,0.00052414288343160002
449.84839552210002,0.00052643338741820644
449.86764216102785,0.00052857857487199141
449.88688879995567,0.00053057973746972937
449.90613543888355,0.00053243816688819065
449.92538207781138,0.00053415515480413015
449.9446287167392,0.00053573199289432103
449.96387535566703,0.00053716997283552925
449.98312199459491,0.00053847038630452492
450.00236863352274,0.00053963452497806578
450.02161527245056,0.00054066368053292237
450.04086191137839,0.00054155914464586131
450.06010855030627,0.00054232220899365032
450.07935518923409,0.00054295416525305365
450.09860182816192,0.00054345630510083554
450.11784846708974,0.0005438299202137674
450.13709510601763,0.00054407630226861151
450.15634174494545,0.00054419674294213668
450.17558838387328,0.00054419253391110455
450.1948350228011,0.00054406496685228825
450.21408166172898,0.00054381533344244879
450.23332830065681,0.00054344492535835409
450.25257493958463,0.00054295503427677166
450.27182157851246,0.00054234695187446551
450.29106821744034,0.00054162196982820271
450.31031485636817,0.00054078137981475034
450.32956149529599,0.00053982647351087393
450.34880813422382,0.00053875854259334121
450.3680547731517,0.00053757887873891533
450.38730141207952,0.00053628877362436574
450.40654805100735,0.00053488951892645929
450.42579468993517,0.00053338240632195806
450.44504132886306,0.00053176872748762673
450.46428796779088,0.00053004977410024126
450.48353460671871,0.00052822683783656241
450.50278124564653,0.00052630121037335834
450.52202788457441,0.00052427418338738376
450.54127452350224,0.00052214704855542199
450.56052116243006,0.0005199210975542312
450.57976780135789,0.00051759762206057911
450.59901444028577,0.00051517791375122433
450.6182610792136,0.00051266326430294629
450.63750771814142,0.00051005496539250489
450.65675435706925,0.00050735430869666654
450.67600099599713,0.00050456258589218813
450.69524763492495,0.00050168108865585601
450.71449427385278,0.00049871110866442445
450.7337409127806,0.00049565393759466031
450.75298755170849,0.00049251086712332132
450.77223419063631,0.00048928318892719341
450.79148082956414,0.00048597219468303129
450.81072746849196,0.00048257917606760225
450.82997410741984,0.00047910542475766401
450.84922074634767,0.0004755522324299986
450.86846738527549,0.00047192089076136725
450.88771402420332,0.00046821269142853462
450.9069606631312,0.00046442892610825542
450.92620730205903,0.00046057088647731689
450.94545394098685,0.00045663986421247676
450.96470057991468,0.00045263715099049841
450.98394721884256,0.00044856403848813828
451.00319385777038,0.00044442181838218707
451.02244049669821,0.00044021178234939645
451.04168713562603,0.00043593522206653631
451.06093377455392,0.00043159342921035657
451.08018041348174,0.00042718769545765098
451.09942705240957,0.00042271931248517424
451.11867369133745,0.00041818957196967455
451.13792033026527,0.00041359976558795085
451.1571669691931,0.00040895118501675003
451.17641360812092,0.00040424512193284416
451.19566024704881,0.00039948286801298229
451.21490688597663,0.0003946657149339612
451.23415352490446,0.00038979495437252909
451.25340016383228,0.00038487187800545454
451.27264680276016,0.00037989777750948835
451.29189344168799,0.0003748739445614286
451.31114008061581,0.00036980167083802565
451.33038671954364,0.00036468224801604245
451.34963335847152,0.00035951696777223631
451.36887999739935,0.00035430712178339792
451.38812663632717,0.000349054001726282
451.407373275255,0.00034375889927765321
451.42661991418288,0.00033842310611426367
451.4458665531107,0.00033304791391290754
451.46511319203853,0.00032763461435034212
451.48435983096635,0.00032218449910332561
451.50360646989424,0.00031669885984861573
451.52285310882206,0.00031117898826300491
451.54209974774989,0.00030562617602324441
451.56134638667771,0.00030004171480610365
451.58059302560559,0.00029442689628832999
451.59983966453342,0.00028878301214672452
451.61908630346124,0.00028311135405803371
451.63833294238907,0.00027741321369902658
451.65757958131695,0.0002716898827464535
451.67682622024478,0.0002659426528771108
451.6960728591726,0.00026017281576775101
451.71531949810043,0.0002543816630951384
451.73456613702831,0.00024857048653602288
451.75381277595613,0.00024274057776720601
451.77305941488396,0.00023689322846543598
451.79230605381179,0.00023102973030747834
451.81155269273967,0.00022515137497008432
451.83079933166749,0.00021925945413005157
451.85004597059532,0.00021335525946413175
451.86929260952314,0.0002074400826490891
451.88853924845102,0.00020151521536167488
451.90778588737885,0.00019558194927868887
451.92703252630668,0.00018964157607687928
451.9462791652345,0.00018369538743301253
451.96552580416238,0.00017774467502383985
451.98477244309021,0.00017179073052615932
452.00401908201803,0.00016583484561672173
452.02326572094586,0.0001598783119722922
452.04251235987374,0.00015392242126961936
452.06175899880157,0.00014796846518550519
452.08100563772939,0.00014201773539669789
452.10025227665722,0.00013607152357996474
452.1194989155851,0.0001301311214120548
452.13874555451292,0.00012419782056976702
452.15799219344075,0.0001182729127298522
452.17723883236857,0.00011235768956907718
452.19648547129646,0.00010645344276418844
452.21573211022428,0.00010056146399198881
452.23497874915211,9.4683044929226058e-05
452.25422538807993,8.8819477252666604e-05
452.27347202700781,8.2972052639060812e-05
452.29271866593564,7.7142062765208925e-05
452.31196530486346,7.1330799307859575e-05
452.33121194379135,6.5539553943761396e-05
452.35045858271917,5.976961834971593e-05
452.369705221647,5.4022284202471377e-05
452.38895186057482,4.8298843178795018e-05
452.4081984995027,4.2600586955435053e-05
452.42744513843053,3.6928807209193242e-05
452.44669177735835,3.1284795616817133e-05
452.46593841628618,2.5669843855074658e-05
452.48518505521406,2.0085243600713584e-05
452.50443169414189,1.4532286530534585e-05
452.52367833306971,9.0122643212875962e-06
452.54292497199754,3.5264686497385976e-06
452.56217161092542,-1.9238088073626931e-06
452.58141824985324,-7.3372763732173357e-06
452.60066488878107,-1.2712642371075613e-05
452.61991152770889,-1.8048615124170242e-05
452.63915816663678,-2.3343902955751073e-05
452.6584048055646,-2.8597214189020901e-05
452.67765144449243,-3.3807257147229789e-05
452.69689808342025,-3.8972740153610458e-05
452.71614472234813,-4.4092371531411672e-05
452.73539136127596,-4.9164859603836658e-05
452.75463800020378,-5.4188912694134832e-05
452.77388463913161,-5.916323912554043e-05
452.79313127805949,-6.4086547221300916e-05
452.81237791698732,-6.8957545304620385e-05
452.83162455591514,-7.3774941698748903e-05
452.85087119484297,-7.853744472691832e-05
452.87011783377085,-8.3243762712377186e-05
452.88936447269867,-8.7892603978331546e-05
452.9086111116265,-9.2482676848029514e-05
452.92785775055432,-9.7012689644703377e-05
452.94710438948221,-0.0001014813506916006
452.96635102841003,-0.00010588736831192809
452.98559766733786,-0.00011022945082893418
453.00484430626568,-0.00011450630656585224
453.02409094519356,-0.00011871664384592757
453.04333758412139,-0.00012285917099236991
453.06258422304921,-0.0001269325963284241
453.08183086197704,-0.00013093562817732504
453.10107750090492,-0.00013486697486231759
453.12032413983275,-0.00013872534470661278
453.13957077876057,-0.00014250944603345569
453.1588174176884,-0.00014621798716607948
453.17806405661628,-0.00014984967642772868
453.1973106955441,-0.00015340322214161704
453.21655733447193,-0.00015687733263098746
453.23580397339975,-0.00016027071621907332
453.25505061232764,-0.00016358208122912001
453.27429725125546,-0.00016681013598434031
453.29354389018329,-0.00016995358880797734
453.31279052911111,-0.00017301114802326686
453.33203716803899,-0.00017598152195344875
453.35128380696682,-0.00017886341892174075
453.37053044589464,-0.00018165554725138523
453.38977708482247,-0.00018435661526561536
453.40902372375035,-0.00018696533128767393
453.42827036267818,-0.00018948040364077749
453.447517001606,-0.00019190054064816909
453.46676364053383,-0.00019422445063308033
453.48601027946171,-0.00019645084191875339
453.50525691838953,-0.00019857842282840774
453.52450355731736,-0.00020060590168528543
453.54375019624518,-0.00020253198681261788
453.56299683517307,-0.00020435538653364518
453.58224347410089,-0.00020607480917159181
453.60149011302872,-0.00020768896304969417
453.62073675195654,-0.0002091965564911878
453.63998339088442,-0.00021059629781930932
453.65923002981225,-0.00021188689535728516
453.67847666874007,-0.00021306705742835368
453.69772330766796,-0.0002141354923557502
453.71696994659578,-0.00021509090846270331
453.73621658552361,-0.00021593201407244878
453.75546322445143,-0.00021665751750822213
453.77470986337931,-0.00021726612709325739
453.79395650230714,-0.00021775655115078511
453.81320314123496,-0.00021812749800404038
453.83244978016279,-0.00021837767597625811
453.85169641909067,-0.000218505793390671
453.8709430580185,-0.00021851055857051264
453.89018969694632,-0.00021839067983901771
453.90943633587415,-0.00021814486551941935
453.92868297480203,-0.00021777182393495007
453.94792961372985,-0.00021727026340884561
453.96717625265768,-0.00021663889226433957
453.98642289158551,-0.00021587641882466488
454.00566953051339,-0.00021498155141305253
454.02491616944121,-0.00021395299835274206
454.04416280836904,-0.00021278946796696348
454.06340944729686,-0.00021148966857895233
454.08265608622474,-0.00021005230851193699
454.10190272515257,-0.00020847609608915928
454.1211493640804,-0.00020675973963384965
454.14039600300822,-0.00020490194746924071
454.1596426419361,-0.00020290142791856095
454.17888928086393,-0.00020075688930505675
454.19813591979175,-0.00019846703995195431
454.21738255871958,-0.00019603058818248886
454.23662919764746,-0.00019344624231988454
454.25587583657529,-0.00019071271068739197
454.27512247550311,-0.00018782870160823746
454.29436911443094,-0.00018479292340565319
454.31361575335882,-0.0001816040844028644
454.33286239228664,-0.0001782608929231244
454.35210903121447,-0.00017476205728965627
454.37135567014229,-0.00017110628582569381
454.39060230907018,-0.00016729228685446042
454.409848947998,-0.00016331876869921189
454.42909558692583,-0.00015918443968316969
454.44834222585365,-0.00015488800812956879
454.46758886478153,-0.00015042818236162957
454.48683550370936,-0.00014580367070261217
454.50608214263718,-0.00014101318147573597
454.52532878156501,-0.00013605542300423618
454.54457542049289,-0.00013092910361133078
454.56382205942072,-0.00012563293162028426
454.58306869834854,-0.00012016561535431393
454.60231533727637,-0.0001145258631366549
454.62156197620425,-0.00010871238329052254
454.64080861513207,-0.00010272388413918665
454.6600552540599,-9.6559074005860869e-05
454.67930189298772,-9.0216661213782029e-05
454.69854853191561,-8.3695354086163118e-05
454.71779517084343,-7.6993860946276103e-05
454.73704180977126,-7.011089011733679e-05
454.75628844869908,-6.3045149922577679e-05
454.77553508762696,-5.579534868521089e-05
454.79478172655479,-4.8360194728513158e-05
454.81402836548261,-4.0738396375698555e-05
454.83327500441044,-3.2928661949998281e-05
454.85252164333832,-2.4929699774624238e-05
454.87176828226615,-1.6740218172856414e-05
454.89101492119397,-8.3589254679049783e-06
454.91026156012185,2.1547001702142132e-07
454.92950819904968,8.9842599586391087e-06
454.9487548379775,1.7948736033737917e-05
454.96800147690533,2.7110189919085778e-05
454.98724811583321,3.6469913291475343e-05
455.00649475476104,4.6029197827619902e-05
455.02574139368886,5.5789335204310371e-05
455.04498803261669,6.5751617098314683e-05
455.06423467154457,7.5917335186428741e-05
455.08348131047239,8.6287781145359546e-05
455.10272794940022,9.6864246651901919e-05
