energy,intensity
521.01426978730933,-0.12186795858653443
521.06289310494833,-0.11736062187445828
521.11151642258733,-0.11223503023609452
521.16013974022633,-0.10656910006705266
521.20876305786533,-0.10044074776294221
521.25738637550432,-0.093927889719372715
521.30600969314332,-0.087108442331953626
521.35463301078232,-0.080060321996294467
521.40325632842132,-0.072861445108004796
521.45187964606032,-0.065589728062694044
521.50050296369932,-0.05832308725597176
521.54912628133832,-0.051139439083447438
521.5977495989772,-0.044116699940746788
521.6463729166162,-0.037332786223446289
521.6949962342552,-0.030865614327172108
521.7436195518942,-0.024793100647533733
521.7922428695332,-0.019193161580140703
521.8408661871722,-0.014143713520602501
521.88948950481119,-0.0097226728645286448
521.93811282245019,-0.0060079560075286392
521.98673614008919,-0.0030774793452119911
522.03535945772819,-0.00099973980304725839
522.08398277536719,0.00025773095874205852
522.13260609300619,0.00078870340873176271
522.18122941064519,0.00068781039253456753
522.22985272828419,4.9684755763183678e-05
522.27847604592318,-0.0010310406559696833
522.32709936356218,-0.002459732997051317
522.37572268120118,-0.0041417594218690094
522.42434599884018,-0.0059824870848100477
522.47296931647918,-0.0078872831402617295
522.52159263411818,-0.009763352829012235
522.57021595175718,-0.011557829770193017
522.61883926939618,-0.013256513708042442
522.66746258703506,-0.014846789940881977
522.71608590467406,-0.016316043767044128
522.76470922231306,-0.017651660484850101
522.81333253995206,-0.018841025392624926
522.86195585759106,-0.019871523788693671
522.91057917523005,-0.020730540971381366
522.95920249286905,-0.021405462239013073
523.00782581050805,-0.021883672889913833
523.05644912814705,-0.022152558222408691
523.10507244578605,-0.022199503534822699
523.15369576342505,-0.022011894125480904
523.20231908106405,-0.021577115292708348
523.25094239870305,-0.020882552334830089
523.29956571634204,-0.019915590550171166
523.34818903398104,-0.018663615237056633
523.39681235162004,-0.017114011693811521
523.44543566925904,-0.015254165218760898
523.49405898689804,-0.013071461110229807
523.54268230453704,-0.010563502493409609
523.59130562217604,-0.0077796338041297803
523.63992893981504,-0.0047855385113088865
523.68855225745403,-0.0016469063565651705
523.73717557509292,0.0015705729184755603
523.78579889273192,0.0048012095722102313
523.83442221037092,0.0079793138630131558
523.88304552800992,0.011039196049266077
523.93166884564891,0.013915166389350763
523.98029216328791,0.01654153514164897
524.02891548092691,0.018857264312358697
524.07753879856591,0.020849194577124943
524.12616211620491,0.022532346984348035
524.17478543384391,0.023922104279924125
524.22340875148291,0.025033849209749427
524.27203206912191,0.025882964519720112
524.3206553867609,0.026484832955732365
524.3692787043999,0.026854837263682371
524.4179020220389,0.02700836018946632
524.4665253396779,0.026960784478980388
524.5151486573169,0.026727492878120755
524.5637719749559,0.026323868132783628
524.6123952925949,0.025765292988865162
524.6610186102339,0.025067150192261561
524.70964192787289,0.024244822488869014
524.75826524551189,0.023313692624583687
524.80688856315078,0.022289143345304269
524.85551188078978,0.021186557396922118
524.90413519842878,0.020021317525335709
524.95275851606777,0.018808806476441235
525.00138183370677,0.017564406996134874
525.05000515134577,0.016303501830312817
525.09862846898477,0.015041473724871241
525.14725178662377,0.013793705425706328
525.19587510426277,0.012575579678714272
525.24449842190177,0.011402479229791249
525.29312173954077,0.01028978682483345
525.34174505717976,0.0092528852097370565
525.39036837481876,0.0083071571303982503
525.43899169245776,0.0074679853327132189
525.48761501009676,0.006750752562578146
525.53623832773576,0.0061708415658892155
525.58486164537476,0.0057436350885426112
525.63348496301376,0.0054824187408232103
525.68210828065276,0.0053739439688952834
525.73073159829175,0.0053867612750581675
525.77935491593075,0.0054890652683282021
525.82797823356975,0.0056490505577217187
525.87660155120864,0.0058349117522546136
525.92522486884764,0.0060148434609441524
525.97384818648663,0.0061570402928062531
526.02247150412563,0.0062296968568572525
526.07109482176463,0.0062010077621134831
526.11971813940363,0.0060391676175912826
526.16834145704263,0.0057123710323069834
526.21696477468163,0.0051895206637526418
526.26558809232063,0.0044616097671052284
526.31421140995963,0.0035455286628566611
526.36283472759862,0.0024596430501573007
526.41145804523762,0.0012223186281575039
526.46008136287662,-0.00014807890399236458
526.50870468051562,-0.0016331838471419517
526.55732799815462,-0.0032146305021408896
526.60595131579362,-0.0048740531698388233
526.65457463343262,-0.0065930861510853922
526.70319795107162,-0.0083533637467302357
526.75182126871061,-0.010136520257622992
526.80044458634961,-0.011924215696531919
526.84906790398861,-0.013702705991727775
526.89769122162761,-0.015468110061260773
526.9463145392665,-0.017217822767077139
526.99493785690549,-0.01894923897113536
527.04356117454449,-0.020659753535381613
527.09218449218349,-0.022346761321766197
527.14080780982249,-0.024007657192239417
527.18943112746149,-0.025639836008751558
527.23805444510049,-0.027240692633252926
527.28667776273949,-0.028807621927693813
527.33530108037849,-0.030338018754024511
527.38392439801748,-0.031829277974195325
527.43254771565648,-0.033278794450156551
527.48117103329548,-0.034683963043858471
527.52979435093448,-0.036042178617251411
527.57841766857348,-0.037350836032285638
527.62704098621248,-0.038607330150911459
527.67566430385148,-0.039809055835079175
527.72428762149048,-0.040953407946739073
527.77291093912947,-0.04203778134784146
527.82153425676847,-0.043057971851174985
527.87015757440747,-0.04397139664770628
527.91878089204647,-0.04469618350739895
527.96740420968547,-0.045148678959804053
528.01602752732435,-0.045245229534472936
528.06465084496335,-0.044902181760957283
528.11327416260235,-0.044035882168807501
528.16189748024135,-0.042562677287574638
528.21052079788035,-0.040398913646809802
528.25914411551935,-0.037460937776064039
528.30776743315835,-0.033665096204888438
528.35639075079735,-0.02892773546283408
528.40501406843634,-0.02316530263427493
528.45363738607534,-0.016313100738197573
528.50226070371434,-0.0083473537919395348
528.55088402135334,0.00075035112606229668
528.59950733899234,0.010998432775001647
528.64813065663134,0.023021654174429862
528.69675397427034,0.039717131639120697
528.74537729190934,0.064514198933301473
528.79400060954833,0.10084218982119952
528.84262392718733,0.15181317927705429
528.89124724482633,0.21736038847245781
528.93987056246533,0.29558465305358678
528.98849388010433,0.38456473823381948
529.03711719774333,0.48262679939445197
529.08574051538221,0.5905489814577064
529.13436383302121,0.71051086585328882
529.18298715066021,0.84470847411046179
529.23161046829921,0.99480506687433412
529.28023378593821,1.1572005041903031
529.32885710357721,1.3252939511316744
529.37748042121621,1.4924496495344253
529.4261037388552,1.652120754219955
529.4747270564942,1.7996687494741572
529.5233503741332,1.9322904749792154
529.5719736917722,2.0472570816334006
529.6205970094112,2.1420321343276596
529.6692203270502,2.218277315323713
529.7178436446892,2.2817298449670567
529.7664669623282,2.3382948349895476
529.81509027996719,2.3938711210426185
529.86371359760619,2.4527553158905855
529.91233691524519,2.5155256104706321
529.96096023288419,2.5822340251556422
530.00958355052319,2.6529339663773532
530.05820686816219,2.7280761684852548
530.10683018580119,2.8090550462259052
530.15545350344019,2.8974020616185712
530.20407682107907,2.9946486766822851
530.25270013871807,3.1012861108605101
530.30132345635707,3.2132597063865793
530.34994677399607,3.3252733717169312
530.39857009163507,3.4320309861660174
530.44719340927406,3.5297012964046894
530.49581672691306,3.6211040560703345
530.54444004455206,3.7109456769218698
530.59306336219106,3.8039326959407593
530.64168667983006,3.9027820634995121
530.69030999746906,4.000761572320866
530.73893331510806,4.0883367413041931
530.78755663274706,4.1559726468338063
530.83617995038605,4.1957500787193966
530.88480326802505,4.2078316729064849
530.93342658566405,4.1949018211912978
530.98204990330305,4.1596457500879076
531.03067322094205,4.1046853030375905
531.07929653858105,4.0320082244465159
531.12791985622005,3.9432371871625618
531.17654317385905,3.8399904832861913
531.22516649149793,3.7238934554206491
531.27378980913693,3.5969087326244336
531.32241312677593,3.4614776222577901
531.37103644441493,3.3200778515667815
531.41965976205393,3.1751871477974682
531.46828307969292,3.0292832381959109
531.51690639733192,2.8848438500081706
531.56552971497092,2.744346710480309
531.61415303260992,2.6102695468583867
531.66277635024892,2.4850900863884653
531.71139966788792,2.3712860563166056
531.76002298552692,2.2713351838888682
531.80864630316592,2.1876637099076386
531.85726962080491,2.120821787182996
531.90589293844391,2.0689926511595682
531.95451625608291,2.0302082199438121
532.00313957372191,2.0025004116421821
532.05176289136091,1.984113894344959
532.10038620899991,1.9745908451896148
532.14900952663891,1.9739625255628463
532.1976328442779,1.9822610930675506
532.2462561619169,1.9995833069722326
532.2948794795559,2.0264630463953255
532.34350279719479,2.063615371216748
532.39212611483379,2.1117559236960286
532.44074943247278,2.1713516887075865
532.48937275011178,2.2390614952959149
532.53799606775078,2.3085672379307471
532.58661938538978,2.3734715645020161
532.63524270302878,2.4291088822547229
532.68386602066778,2.4808188469814461
532.73248933830678,2.5375262905439859
532.78111265594578,2.6081606293510626
532.82973597358477,2.7011619064710666
532.87835929122377,2.8145328030534222
532.92698260886277,2.9362739330306913
532.97560592650177,3.0539836454659075
533.02422924414077,3.155967103669679
533.07285256177977,3.2411859154457874
533.12147587941877,3.3168463612184498
533.17009919705777,3.3903692035526531
533.21872251469676,3.4688112393193533
533.26734583233576,3.5526422697630524
533.31596914997476,3.6366060907124775
533.36459246761376,3.715255790249667
533.41321578525265,3.7831916410495818
533.46183910289164,3.8384307017887345
533.51046242053064,3.8846534822169843
533.55908573816964,3.9260732993241874
533.60770905580864,3.9668932417280249
533.65633237344764,4.0101855125313417
533.70495569108664,4.0568811611605042
533.75357900872564,4.1076727640854802
533.80220232636464,4.1632528973706036
533.85082564400363,4.2237648219426376
533.89944896164263,4.287213841335217
533.94807227928163,4.3510851975064782
533.99669559692063,4.4128641324145628
534.04531891455963,4.4704661458012955
534.09394223219863,4.5237738814947699
534.14256554983763,4.5732318495748139
534.19118886747663,4.6192846035902111
534.23981218511562,4.6623766970897504
534.28843550275462,4.7029526836222164
534.33705882039362,4.7414571167363935
534.38568213803262,4.7783345499810661
534.43430545567162,4.8139951363707167
534.4829287733105,4.8484115473854681
534.5315520909495,4.8812552768172761
534.5801754085885,4.9121918754011737
534.6287987262275,4.9408868938722792
534.6774220438665,4.9670058829657044
534.7260453615055,4.9902143934165704
534.7746686791445,5.0101779759599854
534.8232919967835,5.0265779027473929
534.87191531442249,5.0401390112377866
534.92053863206149,5.0532641234664357
534.96916194970049,5.0685077092519393
535.01778526733949,5.0882746445757743
535.06640858497849,5.1125323324520071
535.11503190261749,5.1392644553792186
535.16365522025649,5.1663970613008807
535.21227853789549,5.191868912966096
535.26090185553448,5.2145134937143123
535.30952517317348,5.2346327401719908
535.35814849081248,5.2526649555688998
535.40677180845148,5.2690484444129018
535.45539512609048,5.2842401653757047
535.50401844372948,5.2987627465676486
535.55264176136836,5.3131532592581889
535.60126507900736,5.327948774716881
535.64988839664636,5.3435240964173349
535.69851171428536,5.3595454199983621
535.74713503192436,5.3754855646032036
535.79575834956336,5.3908173449413281
535.84438166720236,5.4050135757222098
535.89300498484135,5.4175470716553189
535.94162830248035,5.4278906474501252
535.99025162011935,5.4355171178161026
536.03887493775835,5.4398992974627207
536.08749825539735,5.4405100010994509
536.13612157303635,5.4368220434357646
536.18474489067535,5.428308239181133
536.23336820831435,5.4144310944681395
536.28199152595334,5.3945331648226151
536.33061484359234,5.3678795644011945
536.37923816123134,5.3337341142481272
536.42786147887034,5.2913606354076634
536.47648479650934,5.240022948924052
536.52510811414834,5.1789848758415431
536.57373143178734,5.1075102372043872
536.62235474942622,5.0249735063164511
536.67097806706522,4.9322374106534124
536.71960138470422,4.8312303236030889
536.76822470234322,4.7239037818943803
536.81684801998222,4.6122522039045162
536.86547133762122,4.4990859977254569
536.91409465526021,4.3879468614675474
536.96271797289921,4.2824023711459773
537.01134129053821,4.1860010700275732
537.05996460817721,4.1000683265941706
537.10858792581621,4.0216540354331132
537.15721124345521,3.9473227137500695
537.20583456109421,3.8736388787507154
537.25445787873321,3.7980943536666461
537.3030811963722,3.7223300359363867
537.3517045140112,3.6491467885764313
537.4003278316502,3.5813399157441896
537.4489511492892,3.5204626095513869
537.4975744669282,3.46527067361979
537.5461977845672,3.4141373325722979
537.5948211022062,3.3654358110318148
537.6434444198452,3.3175883643825705
537.69206773748419,3.2692815887729516
537.74069105512308,3.2192907676909202
537.78931437276208,3.1663912495373348
537.83793769040108,3.1094225082311899
537.88656100804008,3.0481724119791473
537.93518432567907,2.9831532622527246
537.98380764331807,2.914895672440089
538.03243096095707,2.8439302559294068
538.08105427859607,2.7707876261088473
538.12967759623507,2.6959983963665759
538.17830091387407,2.6200931800907608
538.22692423151307,2.5436613786432423
538.27554754915207,2.4684831353313652
538.32417086679106,2.3974460328944924
538.37279418443006,2.3334797540663668
538.42141750206906,2.2791559714281449
538.47004081970806,2.2339440422230989
538.51866413734706,2.1957217495183285
538.56728745498606,2.1623538946331018
538.61591077262506,2.1317529649059059
538.66453409026406,2.1032826738058108
538.71315740790305,2.0779873677403842
538.76178072554194,2.0570052705115072
538.81040404318094,2.0414738963069023
538.85902736081994,2.0321013545308761
538.90765067845894,2.0284390328087141
538.95627399609793,2.0298455143336587
539.00489731373693,2.0356793822989525
539.05352063137593,2.0452992198978377
539.10214394901493,2.0580636103235581
539.15076726665393,2.0733311367693545
539.19939058429293,2.09046038242847
539.24801390193193,2.108809930494147
539.29663721957093,2.1277383641596277
539.34526053720992,2.1466042666181551
539.39388385484892,2.164766242109383
539.44250717248792,2.1818131172918633
539.49113049012692,2.1981333705799373
539.53975380776592,2.2142889839711164
539.58837712540492,2.2308419394629122
539.63700044304392,2.2483542190528358
539.68562376068292,2.2673878047383993
539.73424707832191,2.2885046785171137
539.78287039596091,2.3122668223864906
539.83149371359991,2.3391351920445795
539.8801170312388,2.3681040075749262
539.9287403488778,2.3970609337819018
539.97736366651679,2.4238664430843664
540.02598698415579,2.446541072926816
540.07461030179479,2.4653905403978165
540.12323361943379,2.4824251475114147
540.17185693707279,2.4996960057678361
540.22048025471179,2.5191524278980761
540.26910357235079,2.5413024433661824
540.31772688998979,2.5655850425247109
540.36635020762878,2.5914139553130822
540.41497352526778,2.6182043127444943
540.46359684290678,2.6454941946023776
540.51222016054578,2.6730387900622072
540.56084347818478,2.7006154522475008
540.60946679582378,2.7280015342817747
540.65809011346278,2.7550141190398554
540.70671343110178,2.7816532436889796
540.75533674874077,2.8079715746838088
540.80396006637977,2.8340217832089589
540.85258338401877,2.8598565404490448
540.90120670165766,2.8855285175886203
540.94983001929666,2.9110903858124204
540.99845333693565,2.936594816305
541.04707665457465,2.962073493641205
541.09569997221365,2.987410126073736
541.14432328985265,3.0124247883935236
541.19294660749165,3.0369373085735418
541.24156992513065,3.0607675145867694
541.29019324276965,3.0837352344061815
541.33881656040865,3.1056602960047552
541.38743987804764,3.1263625273554667
541.43606319568664,3.1456617564312923
541.48468651332564,3.1633778112052084
541.53330983096464,3.1793305196501915
541.58193314860364,3.1933397097392175
541.63055646624264,3.2052476097721785
541.67917978388164,3.2155541427664245
541.72780310152064,3.2255074243143094
541.77642641915963,3.2363961642593062
541.82504973679863,3.2494024124708094
541.87367305443763,3.2643309701159926
541.92229637207663,3.2800282133327632
541.97091968971563,3.2953210898795815
542.01954300735451,3.3091410983797487
542.06816632499351,3.3218645367155681
542.11678964263251,3.3349217545337382
542.16541296027151,3.3497670588010324
542.21403627791051,3.3678445655045985
542.26265959554951,3.389573934950433
542.31128291318851,3.4134885625787232
542.35990623082751,3.4379188874380238
542.4085295484665,3.4612047943331832
542.4571528661055,3.4828623518165749
542.5057761837445,3.5047100563095803
542.5543995013835,3.528833482783357
542.6030228190225,3.5573182062090623
542.6516461366615,3.591787906281144
542.7002694543005,3.6313010110038411
542.7488927719395,3.6740305186039874
542.79751608957849,3.7181485906639682
542.84613940721749,3.7618807509582739
542.89476272485649,3.8037744704732859
542.94338604249549,3.8424973626190693
542.99200936013449,3.8767172708129318
543.04063267777337,3.9055462701398493
543.08925599541237,3.9296755574519371
543.13787931305137,3.9501470555528404
543.18650263069037,3.9680026872462801
543.23512594832937,3.9842228569192928
543.28374926596837,3.9981704502482507
543.33237258360737,4.007469570554024
543.38099590124637,4.0096585102721507
543.42961921888536,4.0025193429981289
543.47824253652436,3.9869266326218562
543.52686585416336,3.9658801430280231
543.57548917180236,3.9424213872499489
543.62411248944136,3.9194227710982918
543.67273580708036,3.8972975414284088
543.72135912471936,3.8746016396645149
543.76998244235836,3.8498452515169186
543.81860575999735,3.8215455739740345
543.86722907763635,3.7891884814942163
543.91585239527535,3.7542096204272837
543.96447571291435,3.7182785126557509
544.01309903055335,3.6830607954707442
544.06172234819235,3.649363516474609
544.11034566583135,3.616060587398005
544.15896898347023,3.581761618771178
544.20759230110923,3.5450778461740819
544.25621561874823,3.5052943049293868
544.30483893638723,3.4634070125478269
544.35346225402623,3.4206795238561338
544.40208557166522,3.3783750297878843
544.45070888930422,3.3373811114694365
544.49933220694322,3.2975003221168242
544.54795552458222,3.2583404463727472
544.59657884222122,3.2195092688799041
544.64520215986022,3.1806145742809928
544.69382547749922,3.1412641472187124
544.74244879513822,3.1010657723357635
544.79107211277721,3.0596272342748425
544.83969543041621,3.0165563176786505
544.88831874805521,2.9714608071898851
544.93694206569421,2.9239484874512458
544.98556538333321,2.8736271431054314
545.03418870097221,2.8202064090674352
545.08281201861121,2.7647570303691329
545.13143533625021,2.7093200235169803
545.1800586538892,2.6559572693401097
545.22868197152809,2.6066052996180904
545.27730528916709,2.5611304121607907
545.32592860680609,2.5176994234277403
545.37455192444509,2.4744288577262292
545.42317524208408,2.4294955872747006
545.47179855972308,2.3823439720845956
545.52042187736208,2.3336223165501124
545.56904519500108,2.2840265537544457
545.61766851264008,2.2342526167807888
545.66629183027908,2.1849964387123353
545.71491514791808,2.1369539526322785
545.76353846555708,2.090821091623813
545.81216178319607,2.0472937278598886
545.86078510083507,2.0068252809331852
545.90940841847407,1.9690759917702474
545.95803173611307,1.9335441569970957
546.00665505375207,1.8997280732470838
546.05527837139107,1.8671964426206578
