energy,intensity
445.99906773653208,-0.0054683999367748596
446.01831437545991,-0.0054126623531723017
446.03756101438779,-0.0053572404085629717
446.05680765331562,-0.0053021333081178269
446.07605429224344,-0.0052473402570073369
446.09530093117127,-0.0051928604604021327
446.11454757009915,-0.0051386931234726893
446.13379420902697,-0.0050848374513899593
446.1530408479548,-0.0050312926493244125
446.17228748688262,-0.0049780579224466817
446.19153412581051,-0.0049251324759272477
446.21078076473833,-0.0048725155149370505
446.23002740366616,-0.0048202062446465674
446.24927404259398,-0.0047682038702264321
446.26852068152186,-0.0047165075968471229
446.28776732044969,-0.0046651166296795788
446.30701395937751,-0.0046140301738942799
446.32626059830534,-0.0045632474346618589
446.34550723723322,-0.0045127676171527985
446.36475387616105,-0.004462589926538028
446.38400051508887,-0.004412713567988032
446.4032471540167,-0.0043631377466734423
446.42249379294458,-0.0043138616677647493
446.4417404318724,-0.0042648845364328721
446.46098707080023,-0.0042162055578483003
446.48023370972805,-0.0041678239371816658
446.49948034865594,-0.0041197388796034582
446.51872698758376,-0.0040719495902845947
446.53797362651159,-0.0040244552743955667
446.55722026543941,-0.0039772551371070036
446.57646690436729,-0.0039303483835894035
446.59571354329512,-0.0038837342190136742
446.61496018222294,-0.0038374118485503084
446.63420682115077,-0.0037913804773699405
446.65345346007865,-0.0037456393106430662
446.67270009900648,-0.0037001875535405894
446.6919467379343,-0.0036550244112330066
446.71119337686213,-0.0036101490888909515
446.73044001579001,-0.0035655607916849244
446.74968665471783,-0.003521258724785821
446.76893329364566,-0.0034772420933641413
446.78817993257348,-0.0034335101025905193
446.80742657150137,-0.0033900619576354581
446.82667321042919,-0.0033468968636698473
446.84591984935702,-0.0033040140258641915
446.86516648828484,-0.0032614126493891219
446.88441312721272,-0.0032190919394151467
446.90365976614055,-0.0031770511011131489
446.92290640506837,-0.0031352893396536367
446.9421530439962,-0.0030938058602072395
446.96139968292408,-0.0030525998679444702
446.98064632185191,-0.0030116705680362059
446.99989296077973,-0.0029710171656529552
447.01913959970756,-0.0029306388659653517
447.03838623863544,-0.002890534874143908
447.05763287756326,-0.0028507043953594968
447.07687951649109,-0.0028111466347826288
447.09612615541892,-0.0027718607975839374
447.1153727943468,-0.0027328460889339407
447.13461943327462,-0.0026941017140035017
447.15386607220245,-0.0026556268779631357
447.17311271113027,-0.0026174207859834776
447.19235935005815,-0.0025794826432350457
447.21160598898598,-0.002541811654888699
447.23085262791381,-0.0025044070261149563
447.25009926684163,-0.0024672679620844503
447.26934590576951,-0.0024303936679677045
447.28859254469734,-0.0023937833489355693
447.30783918362516,-0.0023574362101585694
447.32708582255304,-0.0023213514568072302
447.34633246148087,-0.0022855282940523959
447.3655791004087,-0.0022499659270645931
447.38482573933652,-0.0022146635610144549
447.4040723782644,-0.0021796204010725104
447.42331901719223,-0.0021448356524095985
447.44256565612005,-0.0021103085201962489
447.46181229504788,-0.0020760382096030924
447.48105893397576,-0.0020420239258006636
447.50030557290359,-0.0020082648739597939
447.51955221183141,-0.0019747602592510159
447.53879885075924,-0.001941509286844962
447.55804548968712,-0.0019085111619121676
447.57729212861494,-0.0018757650896234605
447.59653876754277,-0.0018432702751493741
447.61578540647059,-0.0018110259236605428
447.63503204539848,-0.0017790312403275033
447.6542786843263,-0.0017472854303210777
447.67352532325413,-0.0017157876988118034
447.69277196218195,-0.0016845372509703138
447.71201860110983,-0.0016535332919671488
447.73126524003766,-0.0016227750269731255
447.75051187896548,-0.0015922616611587831
447.76975851789331,-0.0015619923996947557
447.78900515682119,-0.0015319664477515859
447.80825179574902,-0.0015021830105000837
447.82749843467684,-0.001472641293110793
447.84674507360467,-0.001443340500754347
447.86599171253255,-0.0014142798386012911
447.88523835146037,-0.0013854585118224312
447.9044849903882,-0.0013568757255883125
447.92373162931602,-0.0013285306850695673
447.94297826824391,-0.0013004225954367466
447.96222490717173,-0.001272550661860648
447.98147154609956,-0.0012449140895118213
448.00071818502738,-0.0012175120835608978
448.01996482395526,-0.0011903438491784307
448.03921146288309,-0.0011634085915352141
448.05845810181091,-0.0011367055158017984
448.07770474073874,-0.0011102338271488158
448.09695137966662,-0.0010839927307468233
448.11619801859445,-0.0010579814317666076
448.13544465752227,-0.0010321991353787231
448.1546912964501,-0.0010066450467538033
448.17393793537798,-0.00098131837106240445
448.1931845743058,-0.00095621831347530973
448.21243121323363,-0.00093134407916307688
448.23167785216145,-0.00090669487329633779
448.25092449108934,-0.00088226990104565311
448.27017113001716,-0.00085806836758179955
448.28941776894499,-0.00083408947807533755
448.30866440787281,-0.00081033243769689965
448.32791104680069,-0.00078679645161704875
448.34715768572852,-0.00076348072500655683
448.36640432465634,-0.00074038446303598593
448.38565096358417,-0.0007175068708759688
448.40489760251205,-0.00069484715369707141
448.42414424143988,-0.00067240451667005985
448.4433908803677,-0.00065017816496550009
448.46263751929553,-0.00062816730375402367
448.48188415822341,-0.00060637113820620025
448.50113079715123,-0.00058478887349278997
448.52037743607906,-0.00056341971478436083
448.53962407500694,-0.00054226286725148293
448.55887071393477,-0.0005213175360649151
448.57811735286259,-0.0005005829263952259
448.59736399179042,-0.0004800582434130471
448.6166106307183,-0.00045974269228895329
448.63585726964612,-0.00043963547819369554
448.65510390857395,-0.0004197358062978466
448.67435054750177,-0.00040004288177203915
448.69359718642966,-0.00038055590978684789
448.71284382535748,-0.00036127409551302097
448.73209046428531,-0.00034219664412113259
448.75133710321313,-0.00032332276078181625
448.77058374214101,-0.0003046516506656479
448.78983038106884,-0.00028618251894337135
448.80907701999666,-0.00026791457078556352
448.82832365892449,-0.00024984701136285736
448.84757029785237,-0.00023197904584583174
448.8668169367802,-0.00021430987940522587
448.88606357570802,-0.00019683871721161848
448.90531021463585,-0.00017956476443564242
448.92455685356373,-0.00016248722624788011
448.94380349249155,-0.0001456053078190643
448.96305013141938,-0.00012891821431977742
448.9822967703472,-0.00011242515092065183
449.00154340927509,-9.6125322792271786e-05
449.02079004820291,-8.0017935105366691e-05
449.04003668713074,-6.4102193030519863e-05
449.05928332605856,-4.8377301738363924e-05
449.07852996498644,-3.2842466399486382e-05
449.09777660391427,-1.7496892184611356e-05
449.11702324284209,-2.3397842643243972e-06
449.13626988176992,1.2629652190740809e-05
449.1555165206978,2.7412212009996047e-05
449.17476315962563,4.2008690022720977e-05
449.19400979855345,5.6419881058327637e-05
449.21325643748128,7.0646579946183173e-05
449.23250307640916,8.4689581515696099e-05
449.25174971533698,9.8549680596151358e-05
449.27099635426481,0.00011222767201695792
449.29024299319263,0.00012572435060748376
449.30948963212052,0.00013904051119713502
449.32873627104834,0.00015217694861520038
449.34798290997617,0.00016513445769108658
449.36722954890399,0.00017791383325416256
449.38647618783187,0.00019051587013383167
449.4057228267597,0.00020294136315938732
449.42496946568752,0.00021519110716023408
449.44421610461535,0.00022726589696574052
449.46346274354323,0.00023916652740530749
449.48270938247106,0.00025089379330823347
449.50195602139888,0.00026244848950392088
449.52120266032671,0.00027383141082173767
449.54044929925459,0.00028504335209108314
449.55969593818241,0.00029608510814125959
449.57894257711024,0.00030695747380166734
449.59818921603807,0.00031766124390167436
449.61743585496595,0.00032819721327067848
449.63668249389377,0.00033856617673798525
449.6559291328216,0.00034876892913299364
449.67517577174942,0.00035880626528507096
449.6944224106773,0.00036867898002361374
449.71366904960513,0.00037838786817793145
449.73291568853296,0.00038793372457742006
449.75216232746078,0.00039731734405144803
449.77140896638866,0.00040653952142940977
449.79065560531649,0.00041560105154061827
449.80990224424431,0.00042450272921446788
449.82914888317214,0.00043324534928032668
449.84839552210002,0.00044182970656758729
449.86764216102785,0.00045025659590556606
449.88688879995567,0.00045852681212365663
449.90613543888355,0.00046664115005125013
449.92538207781138,0.00047460040451766604
449.9446287167392,0.00048240537035229542
449.96387535566703,0.00049005684238450763
449.98312199459491,0.00049755561544369005
450.00236863352274,0.00050490248435916671
450.02161527245056,0.00051209824396032764
450.04086191137839,0.00051914368907654009
450.06010855030627,0.00052603961453719203
450.07935518923409,0.00053278681517160995
450.09860182816192,0.00053938608580918169
450.11784846708974,0.00054583822127927549
450.13709510601763,0.00055214401641127671
450.15634174494545,0.00055830426603451617
450.17558838387328,0.00056431976497837879
450.1948350228011,0.00057019130807223401
450.21408166172898,0.00057591969014546458
450.23332830065681,0.0005815057060274049
450.25257493958463,0.00058695015054743957
450.27182157851246,0.00059225381853493541
450.29106821744034,0.00059741750481927616
450.31031485636817,0.00060244200422979763
450.32956149529599,0.00060732811159588344
450.34880813422382,0.00061207662174690106
450.3680547731517,0.0006166883295122313
450.38730141207952,0.00062116402972121453
450.40654805100735,0.00062550451720323199
450.42579468993517,0.00062971058678765103
450.44504132886306,0.00063378303330385074
450.46428796779088,0.00063772265158117548
450.48353460671871,0.00064153023644900455
450.50278124564653,0.00064520658273670541
450.52202788457441,0.00064875248527365541
450.54127452350224,0.00065216873888920206
450.56052116243006,0.00065545613841272248
450.57976780135789,0.0006586154786735848
450.59901444028577,0.00066164755450116527
450.6182610792136,0.00066455316072481347
450.63750771814142,0.00066733309217390576
450.65675435706925,0.00066998814367780993
450.67600099599713,0.00067251911006590052
450.69524763492495,0.00067492678616753088
450.71449427385278,0.00067721196681207511
450.7337409127806,0.00067937544682890078
450.75298755170849,0.00068141802104738209
450.77223419063631,0.00068334048429687403
450.79148082956414,0.00068514363140675027
450.81072746849196,0.00068682825720637805
450.82997410741984,0.00068839515652513027
450.84922074634767,0.00068984512419236377
450.86846738527549,0.00069117895503745209
450.88771402420332,0.00069239744388976227
450.9069606631312,0.00069350138557866504
450.92620730205903,0.00069449157493352103
450.94545394098685,0.00069536880678370151
450.96470057991468,0.00069613387595857362
450.98394721884256,0.0006967875772875069
451.00319385777038,0.00069733070559986534
451.02244049669821,0.00069776405572501783
451.04168713562603,0.00069808842249233249
451.06093377455392,0.000698304600731177
451.08018041348174,0.00069841338527091754
451.09942705240957,0.00069841557094092277
451.11867369133745,0.00069831195257055907
451.13792033026527,0.00069810332498919533
451.1571669691931,0.00069779048302619792
451.17641360812092,0.00069737422151093552
451.19566024704881,0.00069685533527277322
451.21490688597663,0.00069623461914108205
451.23415352490446,0.00069551286794522743
451.25340016383228,0.00069469087651457748
451.27264680276016,0.00069376943967849631
451.29189344168799,0.00069274935226635746
451.31114008061581,0.0006916314091075258
451.33038671954364,0.00069041640503136805
451.34963335847152,0.00068910513486724907
451.36887999739935,0.00068769839344454283
451.38812663632717,0.00068619697559261345
451.407373275255,0.00068460167614082872
451.42661991418288,0.00068291328991855124
451.4458665531107,0.00068113261175515747
451.46511319203853,0.00067926043648001153
451.48435983096635,0.00067729755892247947
451.50360646989424,0.00067524477391192389
451.52285310882206,0.00067310287627772331
451.54209974774989,0.00067087266084923957
451.56134638667771,0.00066855492245584069
451.58059302560559,0.00066615045592688664
451.59983966453342,0.00066366005609175922
451.61908630346124,0.00066108451777981863
451.63833294238907,0.00065842463582043266
451.65757958131695,0.00065568120504296088
451.67682622024478,0.00065285502027678625
451.6960728591726,0.00064994687635126899
451.71531949810043,0.00064695756809577624
451.73456613702831,0.00064388789033966614
451.75381277595613,0.00064073863791232481
451.77305941488396,0.00063751060564311084
451.79230605381179,0.00063420458836139105
451.81155269273967,0.00063082138089652379
451.83079933166749,0.00062736177807789573
451.85004597059532,0.0006238265747348648
451.86929260952314,0.00062021656569679826
451.88853924845102,0.00061653254579305337
451.90778588737885,0.00061277530985301854
451.92703252630668,0.00060894565270605105
451.9462791652345,0.00060504436918151815
451.96552580416238,0.00060107225410877582
451.98477244309021,0.00059703010231721451
452.00401908201803,0.00059291870863619053
452.02326572094586,0.00058873886789507124
452.04251235987374,0.00058449137492321143
452.06175899880157,0.00058017702455000382
452.08100563772939,0.00057579661160480321
452.10025227665722,0.00057135093091697738
452.1194989155851,0.00056684077731588049
452.13874555451292,0.00056226694563090644
452.15799219344075,0.00055763023069140959
452.17723883236857,0.00055293142732675763
452.19648547129646,0.00054817133036630362
452.21573211022428,0.00054335073463944342
452.23497874915211,0.00053847043497553019
452.25422538807993,0.00053353122620393185
452.27347202700781,0.000528533903154001
452.29271866593564,0.00052347926065513461
452.31196530486346,0.00051836809353668551
452.33121194379135,0.00051320119662800567
452.35045858271917,0.00050797936475849336
452.369705221647,0.00050270339275750096
452.38895186057482,0.00049737407545439563
452.4081984995027,0.00049199220767852923
452.42744513843053,0.00048655858425930104
452.44669177735835,0.00048107400002606249
452.46593841628618,0.00047553924980818139
452.48518505521406,0.00046995512843500843
452.50443169414189,0.00046432243073594429
452.52367833306971,0.00045864195154033999
452.54292497199754,0.00045291448567756306
452.56217161092542,0.00044714082797696358
452.58141824985324,0.00044132177326794365
452.60066488878107,0.00043545811637985335
452.61991152770889,0.00042955065214206074
452.63915816663678,0.00042360017538391534
452.6584048055646,0.0004176074809348196
452.67765144449243,0.0004115733636241238
452.69689808342025,0.00040549861828119541
452.71614472234813,0.00039938403973538363
452.73539136127596,0.00039323042281609247
452.75463800020378,0.00038703856235267102
452.77388463913161,0.00038080925317448698
452.79313127805949,0.00037454329011088938
452.81237791698732,0.00036824146799128261
452.83162455591514,0.0003619045816450156
452.85087119484297,0.00035553342590145614
452.87011783377085,0.00034912879558995284
452.88936447269867,0.00034269148553991042
452.9086111116265,0.00033622229058067818
452.92785775055432,0.00032972200554162327
452.94710438948221,0.00032319142525209419
452.96635102841003,0.00031663134454149684
452.98559766733786,0.00031004255823917912
453.00484430626568,0.00030342586117450894
453.02409094519356,0.00029678204817683426
453.04333758412139,0.00029011191407556141
453.06258422304921,0.00028341625370003861
453.08183086197704,0.0002766958618796334
453.10107750090492,0.00026995153344369313
453.12032413983275,0.00026318406322162517
453.13957077876057,0.00025639424604277736
453.1588174176884,0.00024958287673651697
453.17806405661628,0.00024275075013219143
453.1973106955441,0.00023589866105920858
453.21655733447193,0.00022902740434691571
453.23580397339975,0.00022213777482468035
453.25505061232764,0.00021523056732184961
453.27429725125546,0.00020830657666783174
453.29354389018329,0.00020136659769197398
453.31279052911111,0.00019441142522364375
453.33203716803899,0.00018744185409218787
453.35128380696682,0.00018045867912701532
453.37053044589464,0.0001734626951574727
453.38977708482247,0.00016645469701292762
453.40902372375035,0.00015943547952272693
453.42827036267818,0.00015240583751627954
453.447517001606,0.00014536656582293209
453.46676364053383,0.00013831845927205242
453.48601027946171,0.00013126231269298689
453.50525691838953,0.00012419892091514498
453.52450355731736,0.00011712907876787292
453.54375019624518,0.00011005358108053865
453.56299683517307,0.00010297322268248857
453.58224347410089,9.5888798403131776e-05
453.60149011302872,8.8801103071815411e-05
453.62073675195654,8.1710931517906514e-05
453.63998339088442,7.4619078570751954e-05
453.65923002981225,6.7526339059760943e-05
453.67847666874007,6.0433507814279975e-05
453.69772330766796,5.3341379663655755e-05
453.71696994659578,4.6250749437297661e-05
453.73621658552361,3.916241196455229e-05
453.75546322445143,3.2077162074786952e-05
453.77470986337931,2.4995794597348518e-05
453.79395650230714,1.7919104361646145e-05
453.81320314123496,1.0847886197026487e-05
453.83244978016279,3.782934932857016e-06
453.85169641909067,-3.2749546015156152e-06
453.8709430580185,-1.0324987576682194e-05
453.89018969694632,-1.7366369163296065e-05
453.90943633587415,-2.4398304531989706e-05
453.92868297480203,-3.1419998853416352e-05
453.94792961372985,-3.8430657298166955e-05
453.96717625265768,-4.5429485036894914e-05
453.98642289158551,-5.2415687240232596e-05
454.00566953051339,-5.9388469078833076e-05
454.02491616944121,-6.6347035723287711e-05
454.04416280836904,-7.3290592344249495e-05
454.06340944729686,-8.0218344112351227e-05
454.08265608622474,-8.7129496198245495e-05
454.10190272515257,-9.4023253772524063e-05
454.1211493640804,-0.00010089882200583987
454.14039600300822,-0.00010775540606882525
454.1596426419361,-0.0001145922111321331
454.17888928086393,-0.0001214084423663555
454.19813591979175,-0.00012820330494214504
454.21738255871958,-0.00013497600403013428
454.23662919764746,-0.00014172574480097555
454.25587583657529,-0.00014845173242526163
454.27512247550311,-0.00015515317207364491
454.29436911443094,-0.00016182926891675773
454.31361575335882,-0.00016847922812525238
454.33286239228664,-0.00017510225486972215
454.35210903121447,-0.00018169755432081899
454.37135567014229,-0.00018826433164917538
454.39060230907018,-0.00019480179202544326
454.409848947998,-0.00020130914062021658
454.42909558692583,-0.00020778558260414675
454.44834222585365,-0.00021423032314786674
454.46758886478153,-0.00022064256742202769
454.48683550370936,-0.00022702152059722431
454.50608214263718,-0.00023336638784410797
454.52532878156501,-0.00023967637433331134
454.54457542049289,-0.0002459506852354852
454.56382205942072,-0.00025218852572122521
454.58306869834854,-0.00025838910096118216
454.60231533727637,-0.00026455161612598879
454.62156197620425,-0.00027067527638629542
454.64080861513207,-0.00027675928691269858
454.6600552540599,-0.0002828028528758488
454.67930189298772,-0.0002888051794463786
454.69854853191561,-0.00029476547179493797
454.71779517084343,-0.00030068293509212421
454.73704180977126,-0.00030655677450858762
454.75628844869908,-0.00031238619521496041
454.77553508762696,-0.00031817040238189234
454.79478172655479,-0.00032390860117998164
454.81402836548261,-0.00032959999677987801
454.83327500441044,-0.00033524379435221382
454.85252164333832,-0.00034083919906763819
454.87176828226615,-0.00034638541609675042
454.89101492119397,-0.00035188165061019968
454.91026156012185,-0.00035732710777863449
454.92950819904968,-0.00036272099277265501
454.9487548379775,-0.00036806251076291016
454.96800147690533,-0.00037335086692003223
454.98724811583321,-0.00037858526641466916
455.00649475476104,-0.00038376491441742246
455.02574139368886,-0.00038888901609894039
455.04498803261669,-0.00039395677662985515
455.06423467154457,-0.00039896740118081406
455.08348131047239,-0.00040392009492242013
455.10272794940022,-0.00040881406302532061
455.12197458832804,-0.00041364851066014809
