energy,intensity
521.01426978730933,-0.12131240972154253
521.06289310494833,-0.11673475573757579
521.11151642258733,-0.11224005003226724
521.16013974022633,-0.10782778160894781
521.20876305786533,-0.10349743947094846
521.25738637550432,-0.099248512621600116
521.30600969314332,-0.095080490064233747
521.35463301078232,-0.090992860802180303
521.40325632842132,-0.086985113838770653
521.45187964606032,-0.083056738177335845
521.50050296369932,-0.079207222821206735
521.54912628133832,-0.075436056773714302
521.5977495989772,-0.071742729038198047
521.6463729166162,-0.068126728617971644
521.6949962342552,-0.064587544516374717
521.7436195518942,-0.061124665736738248
521.7922428695332,-0.057737581282393161
521.8408661871722,-0.054425780156670406
521.88948950481119,-0.051188751362900915
521.93811282245019,-0.048025983904415655
521.98673614008919,-0.044936966784545548
522.03535945772819,-0.041921189006621541
522.08398277536719,-0.038978139573974571
522.13260609300619,-0.036107307489935597
522.18122941064519,-0.03330818175783555
522.22985272828419,-0.030580251381005383
522.27847604592318,-0.027923005362776022
522.32709936356218,-0.025335932706478409
522.37572268120118,-0.022818522415443503
522.42434599884018,-0.020370263493002239
522.47296931647918,-0.017990644942485558
522.52159263411818,-0.015679155767224409
522.57021595175718,-0.013435284970549726
522.61883926939618,-0.011258521555792454
522.66746258703506,-0.0091483545262883974
522.71608590467406,-0.0071042728853586215
522.76470922231306,-0.0051257656363390891
522.81333253995206,-0.0032123217825607417
522.86195585759106,-0.0013634303273545203
522.91057917523005,0.00042141972594863554
522.95920249286905,0.0021427393740177775
523.00782581050805,0.0038010396135219693
523.05644912814705,0.0053968314411302655
523.10507244578605,0.0069306258535117146
523.15369576342505,0.0084029338473353889
523.20231908106405,0.009814266419270341
523.25094239870305,0.011165134565985621
523.29956571634204,0.012456049284150292
523.34818903398104,0.013687521570433415
523.39681235162004,0.014860062421504042
523.44543566925904,0.01597418283403124
523.49405898689804,0.017030393804684053
523.54268230453704,0.018029206330131539
523.59130562217604,0.018971131407042763
523.63992893981504,0.019856680032086786
523.68855225745403,0.02068636320193265
523.73717557509292,0.021460691913247676
523.78579889273192,0.02218017716270455
523.83442221037092,0.022845329946970441
523.88304552800992,0.023456661262714416
523.93166884564891,0.024014682106605519
523.98029216328791,0.024519903475312823
524.02891548092691,0.024972833903206725
524.07753879856591,0.025373956581154995
524.12616211620491,0.025723739783375485
524.17478543384391,0.02602265159262954
524.22340875148291,0.026271160091678517
524.27203206912191,0.026469733363283784
524.3206553867609,0.026618839490206693
524.3692787043999,0.026718946555208609
524.4179020220389,0.026770522641050881
524.4665253396779,0.026774035830494883
524.5151486573169,0.026729954206301958
524.5637719749559,0.026638745851233478
524.6123952925949,0.026500878848050798
524.6610186102339,0.026316821279515269
524.70964192787289,0.026087041228388251
524.75826524551189,0.025812006777431118
524.80688856315078,0.025492186009406014
524.85551188078978,0.025128047007072812
524.90413519842878,0.024720057853193551
524.95275851606777,0.024268686630529605
525.00138183370677,0.023774401421842329
525.05000515134577,0.023237670309893078
525.09862846898477,0.022658961377443214
525.14725178662377,0.022038742707254092
525.19587510426277,0.021377482382087074
525.24449842190177,0.020675648484703522
525.29312173954077,0.019933709097864794
525.34174505717976,0.019152132304332239
525.39036837481876,0.018331386186867225
525.43899169245776,0.017471938828231118
525.48761501009676,0.016574258311185263
525.53623832773576,0.015638812718491022
525.58486164537476,0.014666070132909758
525.63348496301376,0.01365645816686923
525.68210828065276,0.01261013927911233
525.73073159829175,0.011527169180690598
525.77935491593075,0.010407603290104246
525.82797823356975,0.009251497025853473
525.87660155120864,0.008058905806441306
525.92522486884764,0.006829885050362387
525.97384818648663,0.0055644901761196476
526.02247150412563,0.0042627766022133038
526.07109482176463,0.0029247997471435515
526.11971813940363,0.0015506150294105944
526.16834145704263,0.00014027786751463398
526.21696477468163,-0.0013061563200441216
526.26558809232063,-0.0027886321147654737
526.31421140995963,-0.0043070940981492223
526.36283472759862,-0.0058614868516951562
526.41145804523762,-0.0074517549569030807
526.46008136287662,-0.0090778429952727835
526.50870468051562,-0.010739695548304073
526.55732799815462,-0.012437257197496738
526.60595131579362,-0.01417047252435058
526.65457463343262,-0.015939286110365391
526.70319795107162,-0.017743642537040978
526.75182126871061,-0.01958348638587713
526.80044458634961,-0.021458762238373646
526.84906790398861,-0.023368162506311099
526.89769122162761,-0.025303545621279868
526.9463145392665,-0.027254450140285911
526.99493785690549,-0.029210412727631325
527.04356117454449,-0.031160970047604503
527.09218449218349,-0.033095658764498416
527.14080780982249,-0.035004015542605994
527.18943112746149,-0.036875577046220194
527.23805444510049,-0.038699879939633974
527.28667776273949,-0.040466460887140274
527.33530108037849,-0.042164856553032065
527.38392439801748,-0.043784603601602252
527.43254771565648,-0.045318028757132332
527.48117103329548,-0.046779990905138395
527.52979435093448,-0.048196247772292741
527.57841766857348,-0.049592628162962796
527.62704098621248,-0.050994960881515956
527.67566430385148,-0.052429074732319683
527.72428762149048,-0.053920798519741325
527.77291093912947,-0.055495961048148378
527.82153425676847,-0.057177748762109938
527.87015757440747,-0.058925929088288385
527.91878089204647,-0.060635345379060936
527.96740420968547,-0.062197897563819375
528.01602752732435,-0.063505485571952847
528.06465084496335,-0.064450009332859465
528.11327416260235,-0.064923368775927651
528.16189748024135,-0.064817463830549191
528.21052079788035,-0.064024194426115913
528.25914411551935,-0.062435460492019618
528.30776743315835,-0.059943161957652105
528.35639075079735,-0.056439198752405204
528.40501406843634,-0.051815470506270472
528.45363738607534,-0.045850518739908176
528.50226070371434,-0.037888119705923214
528.55088402135334,-0.027167834535614836
528.59950733899234,-0.012929224360282264
528.64813065663134,0.0055881496887752215
528.69675397427034,0.029144726480258398
528.74537729190934,0.058500944882867993
528.79400060954833,0.094417243765304762
528.84262392718733,0.13798356936586567
528.89124724482633,0.19359144943263507
528.93987056246533,0.26753554112608907
528.98849388010433,0.36613342412449346
529.03711719774333,0.4946186973756983
529.08574051538221,0.64748116416139978
529.13436383302121,0.81307000309460387
529.18298715066021,0.97966235778247202
529.23161046829921,1.136602351797225
529.28023378593821,1.2837753161284247
529.32885710357721,1.4270761847775524
529.37748042121621,1.5724698338075724
529.4261037388552,1.7255784726211243
529.4747270564942,1.8846696944047148
529.5233503741332,2.0409377149165358
529.5719736917722,2.1852903578189564
529.6205970094112,2.308988858088834
529.6692203270502,2.4110052318044533
529.7178436446892,2.4977971318805845
529.7664669623282,2.5761305812975963
529.81509027996719,2.6526334500887856
529.86371359760619,2.730837570945476
529.91233691524519,2.8112233407702911
529.96096023288419,2.8941419244182485
530.00958355052319,2.9799310328146511
530.05820686816219,3.0678940543155111
530.10683018580119,3.1555848560357695
530.15545350344019,3.2403883044033099
530.20407682107907,3.3196892658458332
530.25270013871807,3.39187119122714
530.30132345635707,3.4596813618581428
530.34994677399607,3.5270587776700806
530.39857009163507,3.5979424665691413
530.44719340927406,3.6749587841187514
530.49581672691306,3.7547740971787027
530.54444004455206,3.8323641322067274
530.59306336219106,3.9027045034482386
530.64168667983006,3.9614515548590759
530.69030999746906,4.007494624787868
530.73893331510806,4.04068183922272
530.78755663274706,4.060861475556627
530.83617995038605,4.0675072584365193
530.88480326802505,4.0565881594827564
530.93342658566405,4.0221592917721596
530.98204990330305,3.9582563817921184
531.03067322094205,3.860103851966894
531.07929653858105,3.7348181159627196
531.12791985622005,3.5963621958360803
531.17654317385905,3.4587812708569978
531.22516649149793,3.3347986796126432
531.27378980913693,3.2228687384929513
531.32241312677593,3.1127355748998764
531.37103644441493,2.9940188732731907
531.41965976205393,2.85672401583084
531.46828307969292,2.701329832905194
531.51690639733192,2.5397646785278498
531.56552971497092,2.384538305630429
531.61415303260992,2.2479202720563602
531.66277635024892,2.1347052611654407
531.71139966788792,2.0409359644821667
531.76002298552692,1.9621574611877091
531.80864630316592,1.8939700023681016
531.85726962080491,1.8339842197228504
531.90589293844391,1.7823470890913446
531.95451625608291,1.7393677351270984
532.00313957372191,1.7053552824836258
532.05176289136091,1.6806188558144408
532.10038620899991,1.6654675797730578
532.14900952663891,1.6602105790129906
532.1976328442779,1.6651569781877538
532.2462561619169,1.6804804487620559
532.2948794795559,1.7054381335475421
532.34350279719479,1.7389072855854861
532.39212611483379,1.7797639368167162
532.44074943247278,1.8268841191818328
532.48937275011178,1.8791438646215055
532.53799606775078,1.9354192050764034
532.58661938538978,1.9945861724871956
532.63524270302878,2.0556422619521899
532.68386602066778,2.1197580476731144
532.73248933830678,2.1899798085208202
532.78111265594578,2.2694154075842934
532.82973597358477,2.3607905030292304
532.87835929122377,2.4619337425350865
532.92698260886277,2.5672846224456713
532.97560592650177,2.6712148704003704
533.02422924414077,2.7683665792662389
533.07285256177977,2.8574580642720386
533.12147587941877,2.9403613303149672
533.17009919705777,3.0190304243747361
533.21872251469676,3.0953055918724304
533.26734583233576,3.1689675149756766
533.31596914997476,3.2380065193660452
533.36459246761376,3.3003533019217079
533.41321578525265,3.3540812812751866
533.46183910289164,3.400441425732093
533.51046242053064,3.443804964849619
533.55908573816964,3.4886743910664926
533.60770905580864,3.5395352027638309
533.65633237344764,3.5989939743584412
533.70495569108664,3.6660998335572699
533.75357900872564,3.7395056941740412
533.80220232636464,3.8178644701407416
533.85082564400363,3.8999892263494758
533.89944896164263,3.9853163418990607
533.94807227928163,4.073433818071905
533.99669559692063,4.1639296561504127
534.04531891455963,4.2559892271763555
534.09394223219863,4.3469570715851678
534.14256554983763,4.433651941894631
534.19118886747663,4.5128925499447767
534.23981218511562,4.582095850237887
534.28843550275462,4.6419182406193933
534.33705882039362,4.6941075290259295
534.38568213803262,4.7404123542652457
534.43430545567162,4.7824625825998579
534.4829287733105,4.8203776155168248
534.5315520909495,4.8532369973808098
534.5801754085885,4.8800997533409385
534.6287987262275,4.9001530020932424
534.6774220438665,4.914645755339996
534.7260453615055,4.9264919959901379
534.7746686791445,4.938653276715085
534.8232919967835,4.9540655537825673
534.87191531442249,4.9739657305042355
534.92053863206149,4.9968587444642809
534.96916194970049,5.0210026319627277
535.01778526733949,5.0446732367373848
535.06640858497849,5.0669316744467503
535.11503190261749,5.0879164831180317
535.16365522025649,5.1078442769209067
535.21227853789549,5.1269316700250549
535.26090185553448,5.1453952766001567
535.30952517317348,5.1634517108158935
535.35814849081248,5.1813175868419457
535.40677180845148,5.1992095123237503
535.45539512609048,5.2172488718723837
535.50401844372948,5.235221830398646
535.55264176136836,5.2528408254968912
535.60126507900736,5.2698182947615955
535.64988839664636,5.285866755177695
535.69851171428536,5.3006990704211772
535.74713503192436,5.3140281987787548
535.79575834956336,5.3255670985393024
535.84438166720236,5.3350287279916992
535.89300498484135,5.3421260454248207
535.94162830248035,5.3465720091275459
535.99025162011935,5.3480795773887486
536.03887493775835,5.346260741455569
536.08749825539735,5.3402514031041308
536.13612157303635,5.32904726987333
536.18474489067535,5.311644029688928
536.23336820831435,5.2870824850099973
536.28199152595334,5.2549283910318181
536.33061484359234,5.2150864179393803
536.37923816123134,5.1674668951044431
536.42786147887034,5.1119801518987531
536.47648479650934,5.0485365176940649
536.52510811414834,4.9770463218621304
536.57373143178734,4.8974198937747007
536.62235474942622,4.8095686734870151
536.67097806706522,4.7134888683750438
536.71960138470422,4.6093197169378834
536.76822470234322,4.4972142304580354
536.81684801998222,4.377363774358102
536.86547133762122,4.2521324665209788
536.91409465526021,4.1271803132279414
536.96271797289921,4.0084426004477089
537.01134129053821,3.9018224980544765
537.05996460817721,3.8094717633499307
537.10858792581621,3.7263276662145968
537.15721124345521,3.6465084447442275
537.20583456109421,3.5641766413594658
537.25445787873321,3.4772494846113182
537.3030811963722,3.3902011835127697
537.3517045140112,3.3081659217485271
537.4003278316502,3.2362651550798107
537.4489511492892,3.1768037029480616
537.4975744669282,3.1257429747547611
537.5461977845672,3.0781768366655626
537.5948211022062,3.029199154846113
537.6434444198452,2.9749927535786393
537.69206773748419,2.9176113841480746
537.74069105512308,2.8610785163492527
537.78931437276208,2.8094190616798205
537.83793769040108,2.7656557351970301
537.88656100804008,2.7255007952890029
537.93518432567907,2.6814272776782424
537.98380764331807,2.625893722209486
538.03243096095707,2.5529036010196395
538.08105427859607,2.4668194450206373
538.12967759623507,2.3762624979026579
538.17830091387407,2.2898671060881481
538.22692423151307,2.2159383872370517
538.27554754915207,2.1561129778101673
538.32417086679106,2.1058255499724181
538.37279418443006,2.0602750043833482
538.42141750206906,2.0151128161110199
538.47004081970806,1.9699122164053993
538.51866413734706,1.9262584066692328
538.56728745498606,1.8857529990321835
538.61591077262506,1.8499976056239158
538.66453409026406,1.8205938385740938
538.71315740790305,1.7991433100123799
538.76178072554194,1.7872476320684538
538.81040404318094,1.7865037327516269
538.85902736081994,1.7956740644157294
538.90765067845894,1.8058856271601518
538.95627399609793,1.8069927303974864
539.00489731373693,1.7888630091681095
539.05352063137593,1.747407983882588
539.10214394901493,1.6941156157257995
539.15076726665393,1.6429491328850827
539.19939058429293,1.6078716364765573
539.24801390193193,1.5998562293415299
539.29663721957093,1.6191437608034747
539.34526053720992,1.6635680207794956
539.39388385484892,1.7309627991866985
539.44250717248792,1.8184348278616895
539.49113049012692,1.9160598241766023
539.53975380776592,2.0099720362549833
539.58837712540492,2.086262223318021
539.63700044304392,2.1326022256745678
539.68562376068292,2.1515067527423137
539.73424707832191,2.1536170706528703
539.78287039596091,2.1496574808410016
539.83149371359991,2.1495598769012476
539.8801170312388,2.1559801144896271
539.9287403488778,2.1676606330494921
539.97736366651679,2.1833061982842854
540.02598698415579,2.2016670714241093
540.07461030179479,2.2221430337989965
540.12323361943379,2.2446183635154169
540.17185693707279,2.2689889380224164
540.22048025471179,2.2951506347690445
540.26910357235079,2.3229993312043451
540.31772688998979,2.3524309047773673
540.36635020762878,2.3833412329371577
540.41497352526778,2.4156261931327641
540.46359684290678,2.4491816628132317
540.51222016054578,2.4839035194276096
540.56084347818478,2.5196876404249431
540.60946679582378,2.5564299032542808
540.65809011346278,2.5939713084945422
540.70671343110178,2.6319001504122927
540.75533674874077,2.6697320288706385
540.80396006637977,2.7069825371994196
540.85258338401877,2.7431672687284796
540.90120670165766,2.7778018167875795
540.94983001929666,2.8104017747067238
540.99845333693565,2.8404827358156717
541.04707665457465,2.8676351065445953
541.09569997221365,2.8919767995553753
541.14432328985265,2.9138525681769862
541.19294660749165,2.9336080455954399
541.24156992513065,2.9515888649967481
541.29019324276965,2.9681406595669233
541.33881656040865,2.9836090624919755
541.38743987804764,2.9983397069579167
541.43606319568664,3.0126782261507579
541.48468651332564,3.0269702532565104
541.53330983096464,3.0415614214611866
541.58193314860364,3.0567973639507979
541.63055646624264,3.0730139593913544
541.67917978388164,3.0902606845449925
541.72780310152064,3.1082612057754098
541.77642641915963,3.1267215121402563
541.82504973679863,3.1453475926971812
541.87367305443763,3.1638454365038355
541.92229637207663,3.1819210326178688
541.97091968971563,3.1992803700969286
542.01954300735451,3.2156710130696768
542.06816632499351,3.2314150558891352
542.11678964263251,3.2472537408229725
542.16541296027151,3.2639378368633691
542.21403627791051,3.2822155672289752
542.26265959554951,3.3025792393923741
542.31128291318851,3.3250499594952312
542.35990623082751,3.3495981338418854
542.4085295484665,3.3761941687366765
542.4571528661055,3.4048084704839421
542.5057761837445,3.4354114453880209
542.5543995013835,3.4679734997532492
542.6030228190225,3.5024650398839694
542.6516461366615,3.5388564720845168
542.7002694543005,3.5771182026592308
542.7488927719395,3.6172206379124501
542.79751608957849,3.6591341841485132
542.84613940721749,3.7026358147694323
542.89476272485649,3.7463354749662088
542.94338604249549,3.7884076050004416
542.99200936013449,3.8270258991470119
543.04063267777337,3.8605303063105261
543.08925599541237,3.8883590469532097
543.13787931305137,3.9103958073938219
543.18650263069037,3.9265255469842413
543.23512594832937,3.9366717619147349
543.28374926596837,3.9411903616276041
543.33237258360737,3.940709008884308
543.38099590124637,3.9358595819416231
543.42961921888536,3.9272739590563268
543.47824253652436,3.9155840184851955
543.52686585416336,3.9014216384850058
543.57548917180236,3.8854186973125344
543.62411248944136,3.868151873272772
543.67273580708036,3.8493951264092576
543.72135912471936,3.8283161554323826
543.76998244235836,3.8040677234799367
543.81860575999735,3.7758084834716628
543.86722907763635,3.7435108200026885
543.91585239527535,3.7087850118043342
543.96447571291435,3.673437803340792
544.01309903055335,3.6392708246212124
544.06172234819235,3.6069552860239815
544.11034566583135,3.5746172302334709
544.15896898347023,3.5400347208361076
544.20759230110923,3.5009892171575143
544.25621561874823,3.4566701650015128
544.30483893638723,3.409842315463719
544.35346225402623,3.3638294713869157
544.40208557166522,3.321954065012009
544.45070888930422,3.2861237959750174
544.49933220694322,3.2541596112967688
544.54795552458222,3.2231488630657812
544.59657884222122,3.190178903370569
544.64520215986022,3.1526278675386412
544.69382547749922,3.110583276028299
544.74244879513822,3.0656071516353181
544.79107211277721,3.0192762851317152
544.83969543041621,2.9730561315585002
544.88831874805521,2.9271809259535888
544.93694206569421,2.8811195199107607
544.98556538333321,2.8343292484978737
545.03418870097221,2.7863009984223361
545.08281201861121,2.7369740349280236
545.13143533625021,2.6866072512583021
545.1800586538892,2.63546641380688
545.22868197152809,2.583817288967587
545.27730528916709,2.5319256431338899
545.32592860680609,2.4800572426996181
545.37455192444509,2.4284778540584813
545.42317524208408,2.3774487793251082
545.47179855972308,2.3271375573151398
545.52042187736208,2.2776226642135944
545.56904519500108,2.228979052839795
545.61766851264008,2.1812816760130675
545.66629183027908,2.1346054865527346
545.71491514791808,2.0890254372781216
545.76353846555708,2.0446164810085521
545.81216178319607,2.0014535705633509
545.86078510083507,1.9596116587618415
545.90940841847407,1.9191656984233487
545.95803173611307,1.8801906423671961
546.00665505375207,1.8427614434096091
546.05527837139107,1.8069232788761476
546.10390168903007,1.7726039009497507
