energy,intensity
629.99553449661744,-0.0050682729303445188
630.02352128367068,-0.004917104612059805
630.05150807072391,-0.0047680286964634265
630.07949485777726,-0.0046210321498559781
630.1074816448305,-0.0044761019385398419
630.13546843188374,-0.0043332250288156031
630.16345521893697,-0.0041923883869844514
630.19144200599033,-0.0040535789793470136
630.21942879304356,-0.003916783772205606
630.2474155800968,-0.003781989731860847
630.27540236715004,-0.003649183824613926
630.30338915420339,-0.0035183530167655045
630.33137594125662,-0.003389484274617831
630.35936272830986,-0.0032625645644715593
630.3873495153631,-0.0031375808526278742
630.41533630241645,-0.0030145201053874719
630.44332308946969,-0.0028933692890525373
630.47130987652292,-0.0027741153699237567
630.49929666357616,-0.0026567453143023141
630.52728345062951,-0.002541246088488935
630.55527023768275,-0.0024276046587857446
630.58325702473599,-0.0023158079914934594
630.61124381178922,-0.0022058430529132652
630.63923059884257,-0.0020976968093459145
630.66721738589581,-0.0019913562270934743
630.69520417294905,-0.0018868082724566894
630.72319096000228,-0.0017840399117367476
630.75117774705552,-0.0016830381112348369
630.77916453410887,-0.001583789837251744
630.80715132116211,-0.0014862820560894653
630.83513810821535,-0.001390501734048782
630.86312489526858,-0.0012964358374308793
630.89111168232193,-0.0012040713325365755
630.91909846937517,-0.0011133951856678087
630.94708525642841,-0.0010243943631253879
630.97507204348165,-0.00093705583121049866
631.003058830535,-0.00085136655622398787
631.03104561758823,-0.00076731350446773792
631.05903240464147,-0.00068488364224258361
631.08701919169471,-0.00060406393584971582
631.11500597874806,-0.00052484135159000099
631.1429927658013,-0.0004472028557652718
631.17097955285453,-0.00037113541467639248
631.19896633990777,-0.00029662599462454875
631.22695312696112,-0.00022366156191063518
631.25493991401436,-0.00015222908283643309
631.28292670106759,-8.2315523702831088e-05
631.31091348812083,-1.390785081101704e-05
631.33890027517418,5.3006969538090383e-05
631.36688706222742,0.0001184419710427591
631.39487384928066,0.00018241018740207802
631.42286063633389,0.00024492465231485766
631.45084742338713,0.00030599839947990866
631.47883421044048,0.00036564446259628656
631.50682099749372,0.00042387587536231621
631.53480778454696,0.00048070567147705446
631.56279457160019,0.00053614688463931594
631.59078135865354,0.00059021254854812837
631.61876814570678,0.00064291569690186248
631.64675493276002,0.00069426936339955726
631.67474171981326,0.00074428658174002153
631.70272850686661,0.00079298038562226328
631.73071529391984,0.00084036380874469958
631.75870208097308,0.00088644988480634265
631.78668886802632,0.00093125164750600543
631.81467565507967,0.00097478213054267269
631.84266244213291,0.0010170543676148046
631.87064922918614,0.0010580813924213925
631.89863601623938,0.0010978762386612479
631.92662280329273,0.0011364519400333378
631.95460959034597,0.0011738215302361586
631.9825963773992,0.0012099980429686858
632.01058316445244,0.0012449945119297292
632.03856995150579,0.0012788239708182356
632.06655673855903,0.0013114994533327429
632.09454352561227,0.0013430339931722031
632.1225303126655,0.0013734406240354291
632.15051709971885,0.0014027323796213481
632.17850388677209,0.0014309222936285358
632.20649067382533,0.0014580233997559249
632.23447746087857,0.0014840487317023274
632.2624642479318,0.0015090113231665564
632.29045103498515,0.0015329242078475185
632.31843782203839,0.0015558004194438306
632.34642460909163,0.0015776529916544056
632.37441139614486,0.0015984949581780551
632.40239818319822,0.0016183393527136702
632.43038497025145,0.0016371992089599004
632.45837175730469,0.0016550875606156433
632.48635854435793,0.0016720174413797076
632.51434533141128,0.0016880018849509718
632.54233211846451,0.0017030539250281148
632.57031890551775,0.0017171865953100195
632.59830569257099,0.0017304129294954944
632.62629247962434,0.0017427459612834018
632.65427926667758,0.0017541987243724542
632.68226605373081,0.0017647842524615136
632.71025284078405,0.0017745155792493943
632.7382396278374,0.0017834057384349424
632.76622641489064,0.0017914677637168967
632.79421320194388,0.0017987146887941086
632.82219998899711,0.0018051595473653891
632.85018677605046,0.0018108153731295725
632.8781735631037,0.0018156951997854243
632.90616035015694,0.0018198120610317821
632.93414713721018,0.0018231789905674568
632.96213392426341,0.0018258090220912625
632.99012071131676,0.0018277151893020163
633.01810749837,0.0018289105258985148
633.04609428542324,0.00182940806557958
633.07408107247647,0.0018292208420440229
633.10206785952983,0.0018283618889906529
633.13005464658306,0.0018268442401182866
633.1580414336363,0.0018246809291257366
633.18602822068954,0.0018218849897118125
633.21401500774289,0.0018184694555753141
633.24200179479612,0.0018144473604150794
633.26998858184936,0.0018098317379299082
633.2979753689026,0.0018046356218186126
633.32596215595595,0.0017988720457799809
633.35394894300919,0.0017925540435128708
633.38193573006242,0.0017856946487160733
633.40992251711566,0.0017783068950884002
633.43790930416901,0.0017704038163286312
633.46589609122225,0.0017619984461356411
633.49388287827549,0.0017531038182082132
633.52186966532872,0.0017437329662451575
633.54985645238207,0.0017338989239452469
633.57784323943531,0.0017236147250073721
633.60583002648855,0.0017128934031303074
633.63381681354178,0.0017017479920128642
633.66180360059502,0.0016901915253538552
633.68979038764837,0.0016782370368520431
633.71777717470161,0.0016658975602063357
633.74576396175485,0.0016531861291155003
633.77375074880808,0.0016401157772783464
633.80173753586143,0.001626699538393633
633.82972432291467,0.0016129504461602797
633.85771110996791,0.0015988815342770455
633.88569789702115,0.0015845058364427427
633.9136846840745,0.0015698363863561233
633.94167147112773,0.0015548862177161174
633.96965825818097,0.0015396683642214801
633.99764504523421,0.0015241958595710232
634.02563183228756,0.0015084817374634929
634.0536186193408,0.0014925390315978304
634.08160540639403,0.0014763807756727847
634.10959219344727,0.0014600200033871675
634.13757898050062,0.0014434697484397229
634.16556576755386,0.0014267430445293982
634.19355255460709,0.0014098529253549386
634.22153934166033,0.0013928124246151562
634.24952612871368,0.0013756345760087933
634.27751291576692,0.0013583324132348004
634.30549970282016,0.0013409189699919223
634.33348648987339,0.0013234072799789697
634.36147327692663,0.0013058103768947547
634.38946006397998,0.0012881412944380178
634.41744685103322,0.0012704130663077151
634.44543363808646,0.0012526387262025871
634.47342042513969,0.0012348313078214459
634.50140721219304,0.0012170038448630306
634.52939399924628,0.0011991693710262986
634.55738078629952,0.0011813409200099895
634.58536757335276,0.0011635315255129159
634.61335436040611,0.0011457542212338179
634.64134114745934,0.0011280220408716518
634.66932793451258,0.0011103480181251565
634.69731472156582,0.0010927451866931458
634.72530150861917,0.0010752265802743606
634.75328829567241,0.0010578052325677543
634.78127508272564,0.0010404941772720689
634.80926186977888,0.0010233064480861158
634.83724865683223,0.0010062550787086379
634.86523544388547,0.00098935310283858715
634.8932222309387,0.00097261355417470536
634.92120901799194,0.00095604946641580446
634.94919580504529,0.00093967387326063137
634.97718259209853,0.00092349980840813019
635.00516937915177,0.00090754030555704687
635.033156166205,0.00089180839840619314
635.06114295325824,0.00087631712065438193
635.08912974031159,0.00086107950600036287
635.11711652736483,0.00084610858814307356
635.14510331441807,0.0008314174007812619
635.1730901014713,0.00081701897761374091
635.20107688852465,0.0008029263523392663
635.22906367557789,0.00078915255865676451
635.25705046263113,0.00077571063026498992
635.28503724968436,0.0007626136008627545
635.31302403673772,0.0007498745041488199
635.34101082379095,0.00073750637382210128
635.36899761084419,0.00072552224358135835
635.39698439789743,0.00071393514712540318
635.42497118495078,0.00070275811815300349
635.45295797200401,0.00069200419036306252
635.48094475905725,0.00068168639745434616
635.50893154611049,0.00067181777312566593
635.53691833316384,0.00066241135107579789
635.56490512021708,0.00065348016500362937
635.59289190727031,0.00064503724860793415
635.62087869432355,0.00063709563558752387
635.6488654813769,0.0006296683596411824
635.67685226843014,0.00062276845446778144
635.70483905548338,0.00061640895376610248
635.73282584253661,0.00061060289123495651
635.76081262958996,0.00060536330057313738
635.7887994166432,0.00060070321547949878
635.81678620369644,0.00059663566965283046
635.84477299074968,0.00059317369679194468
635.87275977780291,0.0005903303305956533
635.90074656485626,0.00058811860476276146
635.9287333519095,0.00058655155299209855
635.95672013896274,0.00058564220898246712
635.98470692601597,0.00058540360643267921
636.01269371306932,0.00058584877904154951
636.04068050012256,0.00058699076050788726
636.0686672871758,0.00058884258453050496
636.09665407422904,0.00059141728480821445
636.12464086128239,0.00059472789503984299
636.15262764833562,0.00059878744892417608
636.18061443538886,0.00060360898016003782
636.2086012224421,0.00060920552244623984
636.23658800949545,0.00061559010948162196
636.26457479654869,0.00062277577496494562
636.29256158360192,0.00063077555259504544
636.32054837065516,0.00063960247607073521
636.34853515770851,0.00064926957909086744
636.37652194476175,0.00065978989535417517
636.40450873181499,0.00067117645855950905
636.43249551886822,0.00068344230240568039
636.46048230592157,0.00069660046059155743
636.48846909297481,0.00071066396681584553
636.51645588002805,0.00072564585477740762
636.54444266708128,0.0007415591581750562
636.57242945413452,0.00075841691070760344
636.60041624118787,0.00077623214607393601
636.62840302824111,0.00079501789797272111
636.65638981529435,0.00081478720010284193
636.68437660234758,0.00083555308616310958
636.71236338940093,0.00085732858985242762
636.74035017645417,0.00088012674486943063
636.76833696350741,0.00090396058491301807
636.79632375056065,0.00092884314368200059
636.824310537614,0.00095478745487529988
636.85229732466723,0.0009818065521915156
636.88028411172047,0.0010099134693295644
636.90827089877371,0.0010391212399882572
636.93625768582706,0.0010694428978665327
636.9642444728803,0.0011008914766629562
636.99223125993353,0.001133480010076461
637.02021804698677,0.0011672215318058589
637.04820483404012,0.0012021290755501065
637.07619162109336,0.001238215675007732
637.10417840814659,0.0012754943638776878
637.13216519519983,0.0013139781758587854
637.16015198225318,0.0013536801446500011
637.18813876930642,0.0013946133039498237
637.21612555635966,0.0014367906874572251
637.24411234341289,0.0014802253288710172
637.27209913046613,0.0015249302618900121
637.30008591751948,0.0015709185202132118
637.32807270457272,0.0016182031375390534
637.35605949162596,0.0016667971475665352
637.38404627867919,0.0017167135839944677
637.41203306573254,0.0017679654805218751
637.44001985278578,0.0018205658708471525
637.46800663983902,0.0018745277886693182
637.49599342689226,0.0019298642676871831
637.52398021394561,0.0019864516812585511
637.55196700099884,0.0020431079250252749
637.57995378805208,0.0020981568274949639
637.60794057510532,0.0021499194330829156
637.63592736215867,0.0021967167862046084
637.66391414921191,0.0022368699312749515
637.69190093626514,0.0022686999127094465
637.71988772331838,0.0022905277749233894
637.74787451037173,0.0023006745623320958
637.77586129742497,0.0022974613193507726
637.8038480844782,0.0022792090903947862
637.83183487153144,0.0022442389198794339
637.85982165858479,0.0021908718522197571
637.88780844563803,0.0021174289318314807
637.91579523269127,0.0020222312031297259
637.9437820197445,0.0019035997105297901
637.97176880679774,0.001759855498446971
637.99975559385109,0.0015893196112958174
638.02774238090433,0.0014084259685325003
638.05572916795757,0.0013152922904151908
638.0837159550108,0.0014310520551368642
638.11170274206415,0.0018768400452681506
638.13968952911739,0.002773791043373823
638.16767631617063,0.0042430398320229242
638.19566310322386,0.0064035909173737063
638.22364989027722,0.0092643803682837221
638.25163667733045,0.01267322885410253
638.27962346438369,0.016465150463434313
638.30761025143693,0.020475159284872962
638.33559703849028,0.02453826940702877
638.36358382554351,0.02848949491846205
638.39157061259675,0.032163849907783211
638.41955739964999,0.035403370114660479
638.44754418670334,0.038173608692437494
638.47553097375658,0.040545623218278634
638.50351776080981,0.042593862238690154
638.53150454786305,0.044392774300166166
638.5594913349164,0.046016807949207136
638.58747812196964,0.047540411732294216
638.61546490902288,0.049038034195928393
638.64345169607611,0.050584123886603827
638.67143848312935,0.05225312935081456
638.6994252701827,0.054119496454817007
638.72741205723594,0.056230513398324113
638.75539884428918,0.058539497686336012
638.78338563134241,0.060979455954823313
638.81137241839576,0.063483394839766838
638.839359205449,0.065984320977116567
638.86734599250224,0.068415241002853219
638.89533277955547,0.07071089104374792
638.92331956660882,0.072861967012926673
638.95130635366206,0.07492593570833174
638.9792931407153,0.076964176807667845
639.00727992776854,0.079038069988630832
639.03526671482189,0.081208994928925526
639.06325350187512,0.083538331306230312
639.09124028892836,0.086087458798249569
639.1192270759816,0.088917757082679016
639.14721386303495,0.092090605837228154
639.17520065008819,0.095667384739567179
639.20318743714142,0.099709473467404067
639.23117422419466,0.10427825169843452
639.25916101124801,0.10943509911037663
639.28714779830125,0.11524139538088443
639.31513458535449,0.12175816153035005
639.34312137240772,0.12900946266906238
639.37110815946107,0.13695081749382648
639.39909494651431,0.14553030164549066
639.42708173356755,0.15469599076499876
639.45506852062078,0.16439596049326397
639.48305530767402,0.17457828647119916
639.51104209472737,0.18519104433976136
639.53902888178061,0.19618230973977718
639.56701566883385,0.20750015831220198
639.59500245588708,0.21909266569794855
639.62298924294043,0.2309079075379786
639.65097602999367,0.24289395947310879
639.67896281704691,0.2549988971442998
639.70694960410015,0.26717079619246464
639.7349363911535,0.27935773225856575
639.76292317820673,0.29150778098341712
639.79090996525997,0.3035690180079812
639.81889675231321,0.31549532756599391
639.84688353936656,0.32731264241267766
639.8748703264198,0.33909562046982378
639.90285711347303,0.35091983869836035
639.93084390052627,0.36286087405916684
639.95883068757962,0.3749943035131732
639.98681747463286,0.38739570402116064
640.01480426168609,0.40013996729010326
640.04279104873933,0.41323847799468089
640.07077783579268,0.42658854514287231
640.09876462284592,0.44007557781437384
640.12675140989916,0.4535849850890446
640.15473819695239,0.46700217604668903
640.18272498400563,0.48021255976711241
640.21071177105898,0.49309754269972855
640.23869855811222,0.50548760736820142
640.26668534516546,0.51717816805166883
640.29467213221869,0.52796394652061451
640.32265891927204,0.53763966454555823
640.35064570632528,0.54600004389690415
640.37863249337852,0.55283980634517738
640.40661928043176,0.5579536736608609
640.43460606748511,0.56118609641810124
640.46259285453834,0.56273646458790172
640.49057964159158,0.56295845760604168
640.51856642864482,0.56220638563414915
640.54655321569817,0.56083455883384647
640.57454000275141,0.55919728736677421
640.60252678980464,0.55764872154441125
640.63051357685788,0.5564900846060159
640.65850036391123,0.55589341672165815
640.68648715096447,0.55601141874072979
640.7144739380177,0.55699679151261394
640.74246072507094,0.55900223588669617
640.77044751212429,0.56218045271237949
640.79843429917753,0.56668411958074927
640.82642108623077,0.57257617107103809
640.854407873284,0.57962659977978759
640.88239466033724,0.58754572325724297
640.91038144739059,0.59604385905368429
640.93836823444383,0.60483132471928691
640.96635502149707,0.61361843780432967
640.9943418085503,0.62211551585905767
641.02232859560365,0.63005052839452103
641.05031538265689,0.63734671272698151
641.07830216971013,0.64404872235916777
641.10628895676336,0.6502030389255774
641.13427574381672,0.65585614406073123
641.16226253086995,0.66105451939908066
641.19024931792319,0.66584464657514875
641.21823610497643,0.67027300722343297
641.24622289202978,0.6743860829784476
641.27420967908301,0.67823035547465793
641.30219646613625,0.68185233473120377
641.33018325318949,0.68533214943401854
641.35817004024284,0.68884858751800082
641.38615682729608,0.69259844220557698
641.41414361434931,0.69677850671921671
641.44213040140255,0.70158557428137391
641.4701171884559,0.70721643811452817
641.49810397550914,0.71386789144108931
641.52609076256238,0.72163467167975681
641.55407754961561,0.73019396893509769
641.58206433666896,0.73911620246241427
641.6100511237222,0.7479717914723687
641.63803791077544,0.75633115517573257
641.66602469782868,0.76376471278324132
641.69401148488191,0.76984288350563079
641.72199827193526,0.77416160647609766
641.7499850589885,0.77670992212813394
641.77797184604174,0.77778533882201717
641.80595863309497,0.77769364565026333
641.83394542014832,0.77674063170538332
641.86193220720156,0.77523208607990235
641.8899189942548,0.77347379786633419
641.91790578130804,0.77172614293674402
641.94589256836139,0.77002516343860794
641.97387935541462,0.76833775365329871
642.00186614246786,0.76663078836570153
642.0298529295211,0.76487114236070863
642.05783971657445,0.76302569042320445
642.08582650362769,0.76106130733809585
642.11381329068092,0.75894486789026794
642.14180007773416,0.75664324686461271
642.16978686478751,0.75412331904601204
642.19777365184075,0.75135195921937825
642.22576043889399,0.74829604216959344
642.25374722594722,0.74492244268155028
642.28173401300046,0.74119803554014063
642.30972080005381,0.7370896955302394
642.33770758710705,0.73256429743677187
642.36569437416028,0.72758871604461439
642.39368116121352,0.72212995030693838
642.42166794826687,0.71617969934244841
642.44965473532011,0.7097839948764666
642.47764152237335,0.70299610130095558
642.50562830942658,0.69586928300790096
642.53361509647993,0.68845680438925827
642.56160188353317,0.68081192983707373
642.58958867058641,0.6729879237433033
642.61757545763965,0.66503805049993336
642.645562244693,0.6570155744989169
642.67354903174623,0.6489737601323049
642.70153581879947,0.64096587179205111
642.72952260585271,0.63304517387014159
642.75750939290606,0.62526493075853018
642.7854961799593,0.61767840684926689
642.81348296701253,0.61033585383415412
642.84146975406577,0.60325118312957338
642.86945654111912,0.59641421959258789
642.89744332817236,0.5898143568206109
642.92543011522559,0.58344098841097158
642.95341690227883,0.5772835079610269
642.98140368933218,0.57133130906811103
643.00939047638542,0.56557378532962921
643.03737726343866,0.56000033034291485
643.06536405049189,0.55460033770532491
643.09335083754513,0.54936320101421687
643.12133762459848,0.54427831386692793
643.14932441165172,0.53933506986085633
643.17731119870496,0.53452286259333903
643.20529798575819,0.5298310856617332
643.23328477281154,0.52524913266337792
643.26127155986478,0.52076639719566775
643.28925834691802,0.51637227285594134
643.31724513397126,0.51205615324155584
643.34523192102461,0.50780743194985178
643.37321870807784,0.50361550257822096
643.40120549513108,0.49946975872400334
643.42919228218432,0.49535959398455648
643.45717906923767,0.49127440195722111
643.48516585629091,0.48720357623938776
643.51315264334414,0.48313651042839723
643.54113943039738,0.47906259812160706
643.56912621745073,0.47497123291635779
643.59711300450397,0.47085180841004015
643.6250997915572,0.46669371819999483
643.65308657861044,0.46248635588357939
643.68107336566379,0.45821911505813384
643.70906015271703,0.45388169956186292
643.73704693977027,0.44948513174336419
643.7650337268235,0.44507513406350563
643.79302051387674,0.44070061629922641
643.82100730093009,0.43641048822744849
