energy,intensity
443.99606705806991,-0.044384580627593484
444.00949355252618,-0.043682088098474181
444.02292004698245,-0.042984434047712239
444.03634654143872,-0.042291604529394788
444.04977303589499,-0.041603585597608794
444.0631995303512,-0.040920363306443996
444.07662602480747,-0.040241923709981808
444.09005251926374,-0.039568252862312303
444.10347901372,-0.038899336817521835
444.11690550817627,-0.038235161629698033
444.13033200263254,-0.037575713352927476
444.14375849708881,-0.036920978041297459
444.15718499154508,-0.036270941748894947
444.17061148600135,-0.03562559052980685
444.18403798045756,-0.034984910438122852
444.19746447491383,-0.034348887527924643
444.2108909693701,-0.033717507853301854
444.22431746382637,-0.033090757468341558
444.23774395828264,-0.032468622427130611
444.2511704527389,-0.031851088783756365
444.26459694719517,-0.03123814259230534
444.27802344165144,-0.03062976990686489
444.29144993610765,-0.03002595678152431
444.30487643056392,-0.029426689270365791
444.31830292502019,-0.028831953427478463
444.33172941947646,-0.0282417353069499
444.34515591393273,-0.027656020962866568
444.358582408389,-0.027074796449315763
444.37200890284527,-0.026498047820384452
444.38543539730153,-0.025925761130159708
444.3988618917578,-0.025357922432728386
444.41228838621402,-0.024794517782179781
444.42571488067028,-0.024235533232596473
444.43914137512655,-0.023680954838067536
444.45256786958282,-0.0231307686526801
444.46599436403909,-0.022584960730521075
444.47942085849536,-0.022043517125677509
444.49284735295163,-0.021506423892236476
444.5062738474079,-0.020973667084284969
444.51970034186417,-0.020445232755909815
444.53312683632038,-0.019921106961200447
444.54655333077665,-0.019401275754239361
444.55997982523292,-0.018885725189115743
444.57340631968918,-0.01837444131991664
444.58683281414545,-0.017867410200728989
444.60025930860172,-0.017364617885639894
444.61368580305799,-0.016866050428736235
444.62711229751426,-0.016371693884105004
444.64053879197053,-0.015881534305833445
444.65396528642674,-0.015395557748010269
444.66739178088301,-0.014913750264718695
444.68081827533928,-0.01443609791004738
444.69424476979555,-0.01396258673808376
444.70767126425181,-0.013493202802914606
444.72109775870808,-0.013027932158626992
444.73452425316435,-0.012566760859307829
444.74795074762062,-0.012109674959044192
444.76137724207683,-0.011656660511924932
444.7748037365331,-0.011207703572033323
444.78823023098937,-0.010762790193458188
444.80165672544564,-0.010321906430286576
444.81508321990191,-0.0098850383366055894
444.82850971435818,-0.009452171966502082
444.84193620881445,-0.0090232933740629351
444.85536270327071,-0.0085983886133753906
444.86878919772698,-0.0081774437385264964
444.88221569218319,-0.0077604448036047158
444.89564218663946,-0.007347377862693738
444.90906868109573,-0.0069382289698823596
444.922495175552,-0.0065329841792574339
444.93592167000827,-0.0061316295449060365
444.94934816446454,-0.0057341511209152429
444.96277465892081,-0.0053405349613720177
444.97620115337708,-0.0049507671203631309
444.98962764783334,-0.0045648336519759358
445.00305414228956,-0.0041827206102988679
445.01648063674583,-0.0038044140494157275
445.02990713120209,-0.0034299000234151444
445.04333362565836,-0.0030591645863839861
445.05676012011463,-0.0026921937924095085
445.0701866145709,-0.0023289736955785373
445.08361310902717,-0.0019694903499781063
445.09703960348344,-0.0016137298096952496
445.11046609793971,-0.0012616781288168621
445.12389259239592,-0.00091332136143161546
445.13731908685219,-0.00056864556162333768
445.15074558130846,-0.00022763678348067251
445.16417207576472,0.00010971891890948493
445.17759857022099,0.00044343549146004524
445.19102506467726,0.00077352688008394677
445.20445155913353,0.0011000070306944609
445.2178780535898,0.0014228898892043595
445.23130454804601,0.0017421894015252765
445.24473104250228,0.002057919513573106
445.25815753695855,0.0023700941712593432
445.27158403141482,0.0026787273204968709
445.28501052587109,0.0029838329071989744
445.29843702032736,0.0032854248772784533
445.31186351478362,0.0035835171766484125
445.32529000923989,0.0038781237512216515
445.33871650369616,0.0041692585469114418
445.35214299815237,0.0044569355096293478
445.36556949260864,0.0047411685852909863
445.37899598706491,0.0050219717198080743
445.39242248152118,0.005299358859093474
445.40584897597745,0.0055733439490603248
445.41927547043372,0.0058439409356216276
445.43270196488999,0.0061111637646902583
445.44612845934626,0.0063750263821792802
445.45955495380252,0.0066355427340018466
445.47298144825874,0.0068927267660698066
445.486407942715,0.0071465924242980275
445.49983443717127,0.0073971536545987815
445.51326093162754,0.0076444244028849376
445.52668742608381,0.0078884186150693821
445.54011392054008,0.0081291502370653516
445.55354041499635,0.0083666332147856771
445.56696690945262,0.0086008814941434912
445.58039340390889,0.0088319090210515483
445.5938198983651,0.0090597297414221171
445.60724639282137,0.0092843576011700721
445.62067288727764,0.0095058065462074112
445.6340993817339,0.0097240905224470608
445.64752587619017,0.0099392234758021065
445.66095237064644,0.010151219352185627
445.67437886510271,0.010360092097510477
445.68780535955898,0.010565855657689749
445.70123185401519,0.010768523978635492
445.71465834847146,0.010968111006262486
445.72808484292773,0.01116463068648286
445.741511337384,0.011358096965209657
445.75493783184027,0.011548523788355839
445.76836432629653,0.01173592510183429
445.7817908207528,0.011920314851558263
445.79521731520907,0.012101706983440557
445.80864380966534,0.012280115443394111
445.82207030412155,0.012455554177331412
445.83549679857782,0.012628037131166794
445.84892329303409,0.01279757825081256
445.86234978749036,0.012964191482181656
445.87577628194663,0.013127890771187051
445.8892027764029,0.01328869006374192
445.90262927085917,0.013446603305759072
445.91605576531543,0.013601644443151685
445.9294822597717,0.013753827421832569
445.94290875422791,0.0139031661877142
445.95633524868418,0.014049674686710797
445.96976174314045,0.014193366864734765
445.98318823759672,0.014334256667699059
445.99661473205299,0.014472358041516746
446.01004122650926,0.014607684932100726
446.02346772096553,0.014740251285364055
446.0368942154218,0.014870071047219741
446.05032070987806,0.014997158163580888
446.06374720433428,0.015121526580359645
446.07717369879055,0.015243190243470414
446.09060019324681,0.015362163098825515
446.10402668770308,0.015478459092337846
446.11745318215935,0.015592092169920593
446.13087967661562,0.015703076277486711
446.14430617107189,0.015811425360949094
446.15773266552816,0.015917153366220863
446.17115915998437,0.01602027423921442
446.18458565444064,0.016120801925843857
446.19801214889691,0.01621875037202157
446.21143864335318,0.016314133523660589
446.22486513780945,0.016406965326673954
446.23829163226571,0.016497259726974647
446.25171812672198,0.016585030670475606
446.26514462117825,0.016670292103089943
446.27857111563452,0.016753057970730581
446.29199761009073,0.016833342219310196
446.305424104547,0.016911158794742448
446.31885059900327,0.016986521642940011
446.33227709345954,0.017059444709815935
446.34570358791581,0.017129941941283144
446.35913008237208,0.017198027283254619
446.37255657682834,0.017263714681643408
446.38598307128461,0.017327018082362491
446.39940956574088,0.017387951431324961
446.41283606019709,0.017446528674443434
446.42626255465336,0.017502763757631462
446.43968904910963,0.01755667062680176
446.4531155435659,0.017608263227867446
446.46654203802217,0.017657555506741252
446.47996853247844,0.017704561409336544
446.49339502693471,0.017749294881566013
446.50682152139098,0.017791769869342819
446.52024801584724,0.017832000318579844
446.53367451030346,0.017870000175190068
446.54710100475972,0.017905783385086679
446.56052749921599,0.017939363894182686
446.57395399367226,0.01797075564839079
446.58738048812853,0.017999972593624319
446.6008069825848,0.018027028675796128
446.61423347704107,0.01805193784081921
446.62765997149734,0.018074714034606504
446.64108646595355,0.018095371203071114
446.65451296040982,0.018113923292125911
446.66793945486609,0.018130384247684067
446.68136594932236,0.018144768015658522
446.69479244377862,0.018157088541962199
446.70821893823489,0.018167359772508107
446.72164543269116,0.018175595653209392
446.73507192714743,0.018181810129978909
446.7484984216037,0.018186017148729652
446.76192491605991,0.018188230655374671
446.77535141051618,0.018188464595826945
446.78877790497245,0.018186732915999412
446.80220439942872,0.018183049561805276
446.81563089388499,0.018177428479157279
446.82905738834125,0.018169883613968624
446.84248388279752,0.018160428912152193
446.85591037725379,0.018149078319620926
446.86933687171006,0.018135845782287968
446.88276336616627,0.018120745246066355
446.89618986062254,0.018103790656868957
446.90961635507881,0.018084995960608696
446.92304284953508,0.018064375103198749
446.93646934399135,0.018041942030552038
446.94989583844762,0.018017710688581517
446.96332233290389,0.017991695023200305
446.97674882736015,0.017963908980321325
446.99017532181642,0.017934366505857585
447.00360181627264,0.017903081545722233
447.0170283107289,0.017870068045827803
447.03045480518517,0.01783533995208772
447.04388129964144,0.017798911210414881
447.05730779409771,0.017760795766722293
447.07073428855398,0.017721007566922936
447.08416078301025,0.017679560556929624
447.09758727746652,0.017636468682655781
447.11101377192273,0.017591745890014221
447.124440266379,0.017545406124917756
447.13786676083527,0.01749746333327945
447.15129325529153,0.017447931461012339
447.1647197497478,0.017396824454029541
447.17814624420407,0.01734415625824387
447.19157273866034,0.017289940819568361
447.20499923311661,0.017234192083916244
447.21842572757288,0.017176923997200305
447.23185222202909,0.017118150505333718
447.24527871648536,0.017057885554229074
447.25870521094163,0.016996143089799742
447.2721317053979,0.016932937057958453
447.28555819985417,0.016868281404618546
447.29898469431043,0.016802190075692836
447.3124111887667,0.016734677017094107
447.32583768322297,0.016665756174735813
447.33926417767924,0.016595441494530544
447.35269067213545,0.016523746922391919
447.36611716659172,0.01645068640423214
447.37954366104799,0.016376273885964521
447.39297015550426,0.016300523313502069
447.40639664996053,0.016223448632757875
447.4198231444168,0.016145063789644754
447.43324963887306,0.016065382730075878
447.44667613332933,0.015984419399964173
447.4601026277856,0.015902187745222673
447.47352912224181,0.015818701711764804
447.48695561669808,0.015733975245502602
447.50038211115435,0.015648022292349656
447.51380860561062,0.015560856798218836
447.52723510006689,0.015472492709023233
447.54066159452316,0.0153829439706758
447.55408808897943,0.015292224529089599
447.5675145834357,0.015200348330177388
447.58094107789191,0.01510732931985298
447.59436757234818,0.01501318144402819
447.60779406680444,0.014917918648616552
447.62122056126071,0.014821554879531074
447.63464705571698,0.014724104082684847
447.64807355017325,0.014625580203990712
447.66150004462952,0.014525997189361789
447.67492653908579,0.014425368984710862
447.68835303354206,0.014323709535951301
447.70177952799827,0.014221032788996196
447.71520602245454,0.014117352689757889
447.72863251691081,0.014012683184149666
447.74205901136708,0.013907038218084672
447.75548550582334,0.013800431737475805
447.76891200027961,0.01369287768823596
447.78233849473588,0.013584390016278397
447.79576498919215,0.013474982667515928
447.80919148364842,0.013364669587861672
447.82261797810463,0.013253464723228914
447.8360444725609,0.013141382019529912
447.84947096701717,0.013028435422677925
447.86289746147344,0.01291463887858621
447.87632395592971,0.012800006333167552
447.88975045038598,0.012684551732335125
447.90317694484224,0.012568289022001661
447.91660343929851,0.012451232148080471
447.93002993375478,0.012333395056484342
447.94345642821099,0.012214791693126892
447.95688292266726,0.012095436003920046
447.97030941712353,0.011975341934777256
447.9837359115798,0.011854523431611752
447.99716240603607,0.011732994440336209
448.01058890049234,0.0116107689068638
448.02401539494861,0.011487860777107589
448.03744188940487,0.011364283996980473
448.05086838386109,0.011240052512395932
448.06429487831736,0.011115180269265945
448.07772137277362,0.010989681213504188
448.09114786722989,0.0108635692910235
448.10457436168616,0.010736858447736947
448.11800085614243,0.010609562629557395
448.1314273505987,0.010481695782398048
448.14485384505497,0.010353271852171775
448.15828033951124,0.010224304784791638
448.17170683396745,0.010094808526171117
448.18513332842372,0.0099647970222221105
448.19855982287999,0.0098342842188582635
448.21198631733625,0.0097032840619924732
448.22541281179252,0.0095718104975378582
448.23883930624879,0.0094398774714071765
448.25226580070506,0.0093074989295137411
448.26569229516133,0.0091746888177703378
448.2791187896176,0.0090414610820900021
448.29254528407381,0.0089078296683863245
448.30597177853008,0.0087738085225711471
448.31939827298635,0.0086394115905580882
448.33282476744262,0.0085046528182601555
448.34625126189889,0.0083695461515901626
448.35967775635515,0.0082341055364613946
448.37310425081142,0.0080983449187866652
448.38653074526769,0.0079622782444790097
448.39995723972396,0.0078259194594512971
448.41338373418017,0.0076892825096174788
448.42681022863644,0.0075523813408890361
448.44023672309271,0.007415229899179504
448.45366321754898,0.0072778421304022234
448.46708971200525,0.0071402319804699799
448.48051620646152,0.0070024133952959478
448.49394270091778,0.0068644003207926629
448.50736919537405,0.006726206702873716
448.52079568983027,0.0065878464874522258
448.53422218428653,0.0064493336204403118
448.5476486787428,0.0063106820477513703
448.56107517319907,0.0061719057152985757
448.57450166765534,0.0060330185689948246
448.58792816211161,0.0058940345547530693
448.60135465656788,0.0057549676184864285
448.61478115102415,0.0056158317061077434
448.62820764548042,0.0054766407635301606
448.64163413993663,0.0053374087366672984
448.6550606343929,0.0051981495714308323
448.66848712884916,0.0050588772137344362
448.68191362330543,0.0049196056094910068
448.6953401177617,0.0047803487046137461
448.70876661221797,0.004641120445015412
448.72219310667424,0.0045019347766091511
448.73561960113051,0.0043628056453078878
448.74904609558678,0.0042237469970245467
448.76247259004299,0.0040847727776730236
448.77589908449926,0.0039458969331648275
448.78932557895553,0.003807133409413771
448.8027520734118,0.0036684961523326398
448.81617856786806,0.0035299991078346638
448.82960506232433,0.0033916562218326007
448.8430315567806,0.0032534814402395973
448.85645805123687,0.0031154887089686334
448.86988454569314,0.002977691973932578
448.88331104014935,0.0028401051810452715
448.89673753460562,0.0027027422762183895
448.91016402906189,0.0025656172053654391
448.92359052351816,0.002428743914399567
448.93701701797443,0.0022921363492335312
448.9504435124307,0.0021558084557807555
448.96387000688696,0.0020197741799538871
448.97729650134323,0.0018840474676659891
448.99072299579944,0.0017486422648307909
449.00414949025571,0.0016135725173599125
449.01757598471198,0.001478852171167
449.03100247916825,0.0013444951721652554
449.04442897362452,0.0012105154662674089
449.05785546808079,0.0010769269993865793
449.07128196253706,0.00094374371743566332
449.08470845699333,0.00081097956632791846
449.09813495144959,0.0006786484919760194
449.11156144590581,0.00054676444029372329
449.12498794036208,0.00041534135719278886
449.13841443481834,0.00028439318858689
449.15184092927461,0.00015393388038897893
449.16526742373088,2.3977378512091141e-05
449.17869391818715,-0.00010546237113076562
449.19212041264342,-0.0002343714226267779
449.20554690709969,-0.00036273583006266041
449.21897340155596,-0.00049054164752562746
449.23239989601217,-0.00061777492910208842
449.24582639046844,-0.00074442172888006253
449.25925288492471,-0.00087046810094618121
449.27267937938097,-0.00099590009938713142
449.28610587383724,-0.0011207037782902107
449.29953236829351,-0.0012448651917424391
449.31295886274978,-0.0013683703938305591
449.32638535720605,-0.0014912054386417573
449.33981185166232,-0.0016133563802629425
449.35323834611853,-0.0017348092727806907
449.3666648405748,-0.001855550170283049
449.38009133503107,-0.0019755651268562602
449.39351782948734,-0.0020948401965877328
449.40694432394361,-0.0022133614335640706
449.42037081839987,-0.0023311148918725155
449.43379731285614,-0.0024480866255999489
449.44722380731241,-0.0025642626888335851
449.46065030176862,-0.0026796291356596669
449.47407679622489,-0.0027941720201663245
449.48750329068116,-0.0029078773964399673
449.50092978513743,-0.0030207313185676987
449.5143562795937,-0.0031327198406365664
449.52778277404997,-0.0032438290167333961
449.54120926850624,-0.0033540449009452356
449.5546357629625,-0.0034633535473591881
449.56806225741877,-0.0035717410100622737
449.58148875187499,-0.0036791933431407908
449.59491524633125,-0.0037856966006830084
449.60834174078752,-0.0038912368367752248
449.62176823524379,-0.0039958001055044323
449.63519472970006,-0.0040993724609577897
449.64862122415633,-0.0042019399572221228
449.6620477186126,-0.0043034886483846735
449.67547421306887,-0.0044040045885322121
449.68890070752514,-0.0045034738317517586
449.70232720198135,-0.0046018824321300833
449.71575369643762,-0.0046992164437548167
449.72918019089389,-0.0047954619207127847
449.74260668535015,-0.0048906049170906463
449.75603317980642,-0.0049846314869755881
449.76945967426269,-0.0050775276844547412
449.78288616871896,-0.0051692795636149036
449.79631266317523,-0.005259873178543123
449.8097391576315,-0.0053492945833264749
449.82316565208771,-0.0054375298320515908
449.83659214654398,-0.0055245649788061291
449.85001864100025,-0.0056103860776766656
449.86344513545652,-0.0056949791827504703
449.87687162991278,-0.0057783303481142301
449.89029812436905,-0.0058604256278551592
449.90372461882532,-0.0059412510760601112
449.91715111328159,-0.0060207927468161893
449.9305776077378,-0.0060990366942100527
449.94400410219407,-0.0061759689723294153
449.95743059665034,-0.0062515756352607976
449.97085709110661,-0.0063258427370912751
449.98428358556288,-0.0063987563319079788
449.99771008001915,-0.0064703024737976511
450.01113657447542,-0.0065404672168474509
450.02456306893168,-0.0066092366151445647
450.03798956338795,-0.0066765967227754019
450.05141605784416,-0.0067425335938274267
450.06484255230043,-0.0068070332823876867
450.0782690467567,-0.006870081842543091
450.09169554121297,-0.0069316653283806318
450.10512203566924,-0.0069917697939872459
450.11854853012551,-0.0070503812934500365
450.13197502458178,-0.007107485880855885
450.14540151903805,-0.0071630696102919222
450.15882801349431,-0.0072171185358450574
450.17225450795053,-0.0072696187116020605
450.1856810024068,-0.0073205561916505346
450.19910749686306,-0.0073699170300770833
450.21253399131933,-0.0074176872809687405
450.2259604857756,-0.0074638529984126373
450.23938698023187,-0.0075084002364955021
450.25281347468814,-0.0075513150493045633
450.26623996914441,-0.0075925834909267159
450.27966646360068,-0.007632191615449091
450.29309295805689,-0.0076701254769584309
450.30651945251316,-0.0077063711295421305
450.31994594696943,-0.0077409146272869045
450.33337244142569,-0.0077737420242797728
450.34679893588196,-0.007804839374607922
450.36022543033823,-0.0078341927323581223
450.3736519247945,-0.0078617881516174909
450.38707841925077,-0.00788761168647302
450.40050491370698,-0.0079116493910116326
450.41393140816325,-0.0079338873193204873
450.42735790261952,-0.0079543115254864932
450.44078439707579,-0.0079729080635966287
450.45421089153206,-0.0079896629877380526
450.46763738598833,-0.0080045623519974934
450.48106388044459,-0.0080175922104621378
450.49449037490086,-0.0080287386172189223
450.50791686935713,-0.0080379876263549782
450.52134336381334,-0.0080453252919570478
450.53476985826961,-0.0080507376681123177
450.54819635272588,-0.0080542108089078773
450.56162284718215,-0.008055730768430483
450.57504934163842,-0.0080552836007673351
